X [s],R BICEPS BRACHII 1: EMG 1->Subset [Volts],R FLEXOR CARPI RADIALIS 2: EMG 2->Subset [Volts],R EXTENSOR CARPI RADIALIS 3: EMG 3->Subset [Volts]
0,-2.85E-06,-0.000287861,-2.35E-05
0.000519231,-2.69E-06,-0.000244556,-1.66E-05
0.001038462,-4.20E-06,-0.000143175,-2.25E-05
0.001557692,-3.36E-06,-7.40E-05,-2.80E-05
0.002076923,-5.04E-07,-7.37E-05,-2.84E-05
0.002596154,-3.02E-06,-5.52E-05,-2.58E-05
0.003115385,-6.04E-06,-1.93E-05,-2.38E-05
0.003634615,-5.20E-06,-1.09E-05,-2.30E-05
0.004153846,-3.36E-07,4.53E-06,-2.22E-05
0.004673077,-3.86E-06,1.29E-05,-2.23E-05
0.005192308,-8.39E-07,2.60E-05,-1.46E-05
0.005711538,-4.03E-06,8.85E-05,-6.88E-06
0.006230769,-5.54E-06,0.000163317,-3.19E-06
0.00675,-3.19E-06,0.000192859,-5.04E-07
0.007269231,-1.68E-07,0.00013344,1.17E-06
0.007788462,-1.17E-06,2.74E-05,-6.88E-06
0.008307692,-4.87E-06,-5.35E-05,-5.20E-06
0.008826923,-4.03E-06,-7.77E-05,4.53E-06
0.009346154,-5.20E-06,-5.05E-05,1.04E-05
0.009865385,-6.21E-06,5.37E-06,9.40E-06
0.010384615,-7.22E-06,3.51E-05,1.38E-05
0.010903846,-5.87E-06,3.21E-05,8.90E-06
0.011423077,-6.55E-06,2.20E-05,-6.21E-06
0.011942308,-5.20E-06,2.35E-05,-2.47E-05
0.012461538,-4.87E-06,1.12E-05,-3.04E-05
0.012980769,-5.04E-06,2.80E-05,-2.58E-05
0.0135,-9.57E-06,6.36E-05,-2.30E-05
0.014019231,-7.55E-06,7.10E-05,-2.15E-05
0.014538462,-7.05E-06,7.00E-05,-2.13E-05
0.015057692,-6.38E-06,4.40E-05,-2.94E-05
0.015576923,-5.54E-06,5.05E-05,-2.94E-05
0.016096154,-4.70E-06,5.19E-05,-2.74E-05
0.016615385,-8.39E-07,-6.88E-06,-3.07E-05
0.017134615,-2.85E-06,5.15E-05,-3.44E-05
0.017653846,-5.54E-06,9.70E-05,-4.50E-05
0.018173077,-4.87E-06,-1.43E-05,-5.42E-05
0.018692308,-8.39E-06,-0.000218036,-4.08E-05
0.019211538,-5.71E-06,-0.000420798,-2.23E-05
0.019730769,-3.19E-06,-0.000322103,-8.22E-06
0.02025,-5.20E-06,-0.000166842,-3.02E-06
0.020769231,-3.36E-06,-8.34E-05,-4.87E-06
0.021288462,-1.51E-06,4.53E-06,-9.90E-06
0.021807692,-1.68E-07,5.42E-05,-9.57E-06
0.022326923,-1.51E-06,-3.19E-06,-1.85E-05
0.022846154,1.68E-07,-4.33E-05,-2.40E-05
0.023365385,-6.71E-07,-2.06E-05,-1.90E-05
0.023884615,-2.85E-06,3.31E-05,-4.87E-06
0.024403846,-3.52E-06,8.69E-05,6.71E-07
0.024923077,-3.36E-07,0.000124376,-4.53E-06
0.025442308,-3.36E-07,-2.05E-05,-1.16E-05
0.025961538,-4.36E-06,-0.000154086,-2.80E-05
0.026480769,-7.72E-06,-0.000170703,-3.47E-05
0.027,-6.88E-06,-0.000118669,-2.60E-05
0.027519231,-5.54E-06,7.55E-06,-1.76E-05
0.028038462,-2.85E-06,3.94E-05,-1.24E-05
0.028557692,-5.54E-06,-1.29E-05,-4.20E-06
0.029076923,-1.68E-06,-3.78E-05,1.68E-07
0.029596154,-1.01E-06,9.23E-06,-8.39E-07
0.030115385,-4.53E-06,6.78E-05,-4.20E-06
0.030634615,-8.90E-06,0.00010927,-8.90E-06
0.031153846,-6.55E-06,0.000117327,-1.02E-05
0.031673077,-7.55E-06,5.84E-05,-1.48E-05
0.032192308,-8.39E-06,5.44E-05,-1.85E-05
0.032711538,-8.90E-06,0.000105241,-1.91E-05
0.033230769,-7.89E-06,0.000116991,-2.05E-05
0.03375,-9.06E-06,8.71E-05,-2.13E-05
0.034269231,-1.09E-05,6.01E-05,-1.76E-05
0.034788462,-9.57E-06,3.56E-05,-1.09E-05
0.035307692,-6.88E-06,1.43E-05,-1.09E-05
0.035826923,-4.53E-06,-5.69E-05,-1.09E-05
0.036346154,-3.19E-06,-0.000216358,-7.55E-06
0.036865385,-3.19E-06,-0.000197055,-5.20E-06
0.037384615,-2.85E-06,-5.30E-05,-4.53E-06
0.037903846,5.04E-07,6.71E-05,-1.16E-05
0.038423077,-2.18E-06,0.000111284,-1.23E-05
0.038942308,-3.52E-06,9.52E-05,-1.16E-05
0.039461538,-2.18E-06,8.29E-05,-8.22E-06
0.039980769,-4.53E-06,-1.36E-05,-5.54E-06
0.0405,-5.04E-06,-9.28E-05,-1.51E-06
0.041019231,-3.36E-06,-5.54E-05,-2.52E-06
0.041538462,-3.86E-06,-4.31E-05,-7.22E-06
0.042057692,-3.19E-06,2.77E-05,-1.19E-05
0.042576923,-5.20E-06,-6.93E-05,-1.93E-05
0.043096154,-2.69E-06,-0.000429358,-2.32E-05
0.043615385,-4.53E-06,-0.000465278,-3.21E-05
0.044134615,-7.55E-06,-0.000284169,-4.20E-05
0.044653846,-9.40E-06,-0.000133944,-3.05E-05
0.045173077,-6.21E-06,-0.000129747,-1.91E-05
0.045692308,-4.87E-06,9.37E-05,-9.23E-06
0.046211538,-2.85E-06,0.000281147,-3.52E-06
0.046730769,-3.36E-07,0.000242542,1.34E-06
0.04725,-6.71E-07,1.17E-06,-1.68E-07
0.047769231,5.04E-07,-0.000162142,4.20E-06
0.048288462,8.39E-07,-0.000182284,1.12E-05
0.048807692,-2.18E-06,-0.000161807,9.90E-06
0.049326923,-1.17E-06,-9.82E-05,3.86E-06
0.049846154,-2.18E-06,-3.89E-05,-8.39E-07
0.050365385,-1.68E-07,3.93E-05,-1.12E-05
0.050884615,-1.17E-06,5.46E-05,-1.66E-05
0.051403846,-6.71E-07,3.24E-05,-1.90E-05
0.051923077,-2.69E-06,1.06E-05,-2.10E-05
0.052442308,-3.52E-06,2.94E-05,-1.76E-05
0.052961538,-5.20E-06,6.75E-05,-1.59E-05
0.053480769,-7.05E-06,9.79E-05,-2.32E-05
0.054,-6.88E-06,0.000114641,-3.37E-05
0.054519231,-5.87E-06,0.000126558,-2.50E-05
0.055038462,-1.51E-06,0.000119173,-1.23E-05
0.055557692,-3.36E-06,7.10E-05,-7.72E-06
0.056076923,-2.35E-06,2.17E-05,-9.23E-06
0.056596154,-2.18E-06,6.06E-05,-1.93E-05
0.057115385,-3.36E-06,0.000121355,-3.00E-05
0.057634615,-1.85E-06,3.39E-05,-3.24E-05
0.058153846,-1.85E-06,-6.66E-05,-2.28E-05
0.058673077,-1.01E-06,-2.06E-05,-6.88E-06
0.059192308,-2.85E-06,-2.10E-05,5.20E-06
0.059711538,-1.68E-06,-1.29E-05,6.55E-06
0.060230769,-2.01E-06,-2.17E-05,3.02E-06
0.06075,-3.02E-06,-6.16E-05,2.01E-06
0.061269231,-5.71E-06,-0.000121859,-7.39E-06
0.061788462,-6.21E-06,-0.000151232,-1.23E-05
0.062307692,-5.87E-06,-0.000160632,-5.20E-06
0.062826923,-5.71E-06,-7.99E-05,-5.04E-07
0.063346154,-3.52E-06,-1.12E-05,1.14E-05
0.063865385,-3.52E-06,8.83E-05,1.44E-05
0.064384615,-5.54E-06,0.000158282,1.61E-05
0.064903846,-6.88E-06,6.63E-05,1.01E-05
0.065423077,-2.85E-06,-0.000160967,3.19E-06
0.065942308,-4.70E-06,-6.23E-05,-2.52E-06
0.066461538,-6.38E-06,0.000178759,-8.73E-06
0.066980769,-6.38E-06,0.000244053,-1.80E-05
0.0675,-8.73E-06,0.000161303,-2.65E-05
0.068019231,-8.22E-06,0.000118837,-2.87E-05
0.068538462,-4.70E-06,0.000107927,-3.16E-05
0.069057692,-3.86E-06,9.97E-05,-3.26E-05
0.069576923,-1.68E-07,8.29E-05,-3.76E-05
0.070096154,-5.20E-06,3.00E-05,-4.62E-05
0.070615385,-1.12E-05,-4.40E-05,-5.09E-05
0.071134615,-1.49E-05,-0.000141329,-5.89E-05
0.071653846,-1.23E-05,-0.000241199,-6.45E-05
0.072173077,-1.23E-05,-0.000273594,-5.39E-05
0.072692308,-8.39E-06,-0.0002224,-4.55E-05
0.073211538,-8.56E-06,-9.25E-05,-3.64E-05
0.073730769,-1.02E-05,1.11E-05,-2.57E-05
0.07425,-6.88E-06,4.62E-05,-2.06E-05
0.074769231,-4.36E-06,4.20E-06,-2.08E-05
0.075288462,-3.02E-06,-7.07E-05,-2.23E-05
0.075807692,-5.04E-07,-0.000134112,-2.43E-05
0.076326923,1.85E-06,-0.000116991,-2.87E-05
0.076846154,-1.85E-06,-7.22E-05,-2.45E-05
0.077365385,1.68E-07,-1.31E-05,-2.47E-05
0.077884615,-1.68E-06,5.93E-05,-1.51E-05
0.078403846,-4.20E-06,9.62E-05,-7.89E-06
0.078923077,-4.36E-06,8.64E-05,-6.21E-06
0.079442308,-5.04E-07,1.02E-05,-8.22E-06
0.079961538,-4.36E-06,-0.00010927,-8.22E-06
0.080480769,-5.54E-06,-0.00018732,-9.57E-06
0.081,-6.21E-06,-0.000218708,-5.54E-06
0.081519231,-3.36E-06,-0.000199573,-8.90E-06
0.082038462,-5.20E-06,-0.00013109,-9.57E-06
0.082557692,-6.55E-06,-4.36E-05,-1.31E-05
0.083076923,-8.22E-06,3.05E-05,-1.64E-05
0.083596154,-7.05E-06,8.95E-05,-1.85E-05
0.084115385,-8.56E-06,0.000129412,-1.09E-05
0.084634615,-6.21E-06,0.000153246,-9.90E-06
0.085153846,-4.36E-06,3.98E-05,-1.19E-05
0.085673077,-4.20E-06,-0.000217365,-1.29E-05
0.086192308,-6.38E-06,-0.00029659,-1.33E-05
0.086711538,-9.74E-06,-0.000246403,-2.30E-05
0.087230769,-1.19E-05,-0.000162814,-2.47E-05
0.08775,-6.88E-06,-7.35E-05,-1.96E-05
0.088269231,-1.29E-05,-3.05E-05,-1.39E-05
0.088788462,-1.06E-05,2.67E-05,-1.36E-05
0.089307692,-8.56E-06,0.000113634,-6.04E-06
0.089826923,-8.90E-06,9.35E-05,-6.55E-06
0.090346154,-1.29E-05,5.09E-05,-7.72E-06
0.090865385,-1.09E-05,-6.29E-05,-1.68E-06
0.091384615,-6.71E-06,-9.62E-05,3.02E-06
0.091903846,-8.39E-06,-1.33E-05,4.36E-06
0.092423077,-1.09E-05,2.25E-05,-4.20E-06
0.092942308,-6.21E-06,3.14E-05,-1.53E-05
0.093461538,-5.04E-06,4.65E-05,-2.70E-05
0.093980769,-4.53E-06,9.45E-05,-3.21E-05
0.0945,-4.53E-06,7.67E-05,-2.92E-05
0.095019231,-4.20E-06,6.65E-05,-1.64E-05
0.095538462,-3.02E-06,0.000109941,1.68E-07
0.096057692,-7.05E-06,0.000142168,-5.04E-07
0.096576923,-7.72E-06,0.000170703,-3.86E-06
0.097096154,-2.01E-06,0.000114977,-6.88E-06
0.097615385,-8.22E-06,-7.55E-06,-8.56E-06
0.098134615,-4.53E-06,-3.74E-05,-9.90E-06
0.098653846,-7.55E-06,2.08E-05,-1.29E-05
0.099173077,-8.39E-07,6.92E-05,-1.70E-05
0.099692308,8.39E-07,9.42E-05,-1.70E-05
0.100211538,-1.17E-06,0.000131762,-2.10E-05
0.100730769,0,0.000143008,-2.47E-05
0.10125,-5.04E-07,7.35E-05,-1.98E-05
0.101769231,2.01E-06,-1.63E-05,-1.33E-05
0.102288462,1.17E-06,-7.32E-05,-1.73E-05
0.102807692,-1.17E-06,-0.000101213,-1.12E-05
0.103326923,-1.17E-06,1.56E-05,-6.21E-06
0.103846154,1.68E-07,0.000147707,-1.11E-05
0.104365385,1.01E-06,0.000115984,-1.76E-05
0.104884615,-2.69E-06,-0.000114641,-2.27E-05
0.105403846,1.68E-07,-0.000221393,-2.92E-05
0.105923077,-2.01E-06,-0.000134951,-2.87E-05
0.106442308,-1.85E-06,-0.000187488,-2.43E-05
0.106961538,-3.86E-06,-0.000399649,-2.00E-05
0.107480769,-4.53E-06,-0.000160464,-1.06E-05
0.108,-8.39E-07,-1.68E-07,5.04E-07
0.108519231,1.68E-07,-5.69E-05,4.20E-06
0.109038462,-1.17E-06,-3.74E-05,1.14E-05
0.109557692,-1.68E-06,-1.59E-05,1.14E-05
0.110076923,-4.03E-06,-7.13E-05,-1.17E-06
0.110596154,-4.03E-06,-0.000200076,-1.06E-05
0.111115385,-4.87E-06,-0.000224582,-1.90E-05
0.111634615,-5.87E-06,-0.000178424,-2.74E-05
0.112153846,-6.88E-06,-0.000123705,-2.97E-05
0.112673077,-4.87E-06,-5.15E-05,-3.29E-05
0.113192308,-7.89E-06,8.17E-05,-2.33E-05
0.113711538,-1.68E-06,0.000176745,-1.09E-05
0.114230769,-1.68E-06,0.000152239,-4.20E-06
0.11475,-1.85E-06,8.69E-05,6.88E-06
0.115269231,-2.18E-06,6.23E-05,1.51E-06
0.115788462,-5.87E-06,-1.83E-05,-9.57E-06
0.116307692,-6.38E-06,-3.02E-05,-9.06E-06
0.116826923,-7.55E-06,3.17E-05,-1.33E-05
0.117346154,-4.53E-06,0.000124544,-1.17E-05
0.117865385,-1.17E-06,0.000148211,-4.87E-06
0.118384615,-1.68E-06,1.59E-05,5.04E-06
0.118903846,-3.52E-06,-1.46E-05,8.56E-06
0.119423077,-3.36E-06,3.91E-05,-7.55E-06
0.119942308,-8.39E-06,0.000137133,-3.31E-05
0.120461538,-6.88E-06,0.000208301,-4.52E-05
0.120980769,-7.89E-06,-6.13E-05,-4.18E-05
0.1215,-2.01E-06,-0.000561456,-1.76E-05
0.122019231,-1.51E-06,-0.000301961,-2.18E-06
0.122538462,-4.20E-06,-0.000160296,9.90E-06
0.123057692,-2.69E-06,-0.000175067,1.49E-05
0.123576923,-3.02E-06,-0.000121691,1.26E-05
0.124096154,-1.51E-06,-7.55E-06,7.72E-06
0.124615385,-5.20E-06,3.96E-05,8.39E-07
0.125134615,-4.20E-06,2.25E-05,-5.54E-06
0.125653846,-5.20E-06,-3.91E-05,-1.54E-05
0.126173077,-8.90E-06,-9.01E-05,-2.72E-05
0.126692308,-4.20E-06,-2.89E-05,-3.09E-05
0.127211538,-7.22E-06,9.85E-05,-2.64E-05
0.127730769,-6.21E-06,0.000178424,-2.37E-05
0.12825,-4.20E-06,0.000218708,-2.50E-05
0.128769231,-3.52E-06,0.000203265,-2.55E-05
0.129288462,-3.69E-06,0.000141161,-2.15E-05
0.129807692,-4.70E-06,2.58E-05,-1.68E-05
0.130326923,-5.87E-06,-0.000101717,-2.10E-05
0.130846154,-6.55E-06,-8.27E-05,-2.32E-05
0.131365385,-1.04E-05,-3.68E-05,-2.77E-05
0.131884615,-7.39E-06,8.41E-05,-2.70E-05
0.132403846,-5.87E-06,2.13E-05,-2.47E-05
0.132923077,-6.21E-06,-0.000365408,-2.45E-05
0.133442308,-5.04E-06,-0.000497505,-2.50E-05
0.133961538,-2.01E-06,-0.000355505,-2.30E-05
0.134480769,-3.02E-06,-0.00014049,-2.30E-05
0.135,-6.21E-06,-3.42E-05,-2.03E-05
0.135519231,-3.52E-06,-4.15E-05,-2.40E-05
0.136038462,-3.86E-06,-2.25E-05,-2.05E-05
0.136557692,-6.21E-06,-6.04E-06,-2.23E-05
0.137076923,-4.36E-06,-1.17E-06,-2.58E-05
0.137596154,-6.21E-06,1.39E-05,-2.30E-05
0.138115385,-4.87E-06,1.09E-05,-1.64E-05
0.138634615,-1.01E-06,-3.11E-05,-8.22E-06
0.139153846,-3.52E-06,-3.42E-05,-7.55E-06
0.139673077,-5.54E-06,1.49E-05,-6.21E-06
0.140192308,-5.20E-06,4.41E-05,-5.54E-06
0.140711538,-2.85E-06,3.94E-05,-7.55E-06
0.141230769,-7.55E-06,2.97E-05,-2.69E-06
0.14175,-2.18E-06,3.27E-05,1.17E-06
0.142269231,-2.85E-06,4.50E-05,1.17E-06
0.142788462,-6.88E-06,6.28E-05,-3.36E-07
0.143307692,-8.39E-06,4.85E-05,-4.87E-06
0.143826923,-9.40E-06,1.11E-05,-1.49E-05
0.144346154,-7.22E-06,-4.85E-05,-1.70E-05
0.144865385,-7.55E-06,-5.19E-05,-2.57E-05
0.145384615,-5.54E-06,-1.26E-05,-3.07E-05
0.145903846,-4.20E-06,1.81E-05,-2.84E-05
0.146423077,-6.21E-06,4.41E-05,-2.40E-05
0.146942308,-7.72E-06,5.02E-05,-2.64E-05
0.147461538,-9.74E-06,1.46E-05,-2.64E-05
0.147980769,-1.26E-05,-8.56E-05,-2.77E-05
0.1485,-4.70E-06,-0.000138811,-3.00E-05
0.149019231,-8.39E-07,-0.000104906,-2.79E-05
0.149538462,2.85E-06,-6.43E-05,-2.00E-05
0.150057692,4.36E-06,-2.70E-05,-6.21E-06
0.150576923,3.36E-07,-2.74E-05,-6.71E-07
0.151096154,-1.51E-06,-1.68E-07,-2.52E-06
0.151615385,-1.51E-06,8.06E-06,-1.43E-05
0.152134615,-3.19E-06,2.52E-05,-2.45E-05
0.152653846,-5.04E-07,1.12E-05,-3.39E-05
0.153173077,-2.85E-06,7.55E-06,-3.68E-05
0.153692308,-4.20E-06,-5.76E-05,-2.67E-05
0.154211538,-1.68E-06,-0.000201251,-2.47E-05
0.154730769,-3.02E-06,-8.76E-05,-1.80E-05
0.15525,-2.85E-06,0.000241199,-8.22E-06
0.155769231,-4.36E-06,0.000425498,2.85E-06
0.156288462,-6.55E-06,0.000277791,9.23E-06
0.156807692,-7.22E-06,3.52E-05,2.52E-06
0.157326923,6.71E-07,-1.90E-05,-4.87E-06
0.157846154,-2.35E-06,3.02E-05,-7.89E-06
0.158365385,-4.87E-06,1.02E-05,6.71E-07
0.158884615,-1.68E-06,-9.21E-05,4.53E-06
0.159403846,-3.19E-06,-0.000126894,5.20E-06
0.159923077,-2.01E-06,-8.54E-05,-2.35E-06
0.160442308,-3.52E-06,-3.52E-05,-4.53E-06
0.160961538,-1.51E-06,-2.65E-05,1.68E-06
0.161480769,-4.87E-06,-4.68E-05,-1.68E-07
0.162,-1.51E-06,-4.45E-05,-4.03E-06
0.162519231,-3.19E-06,9.15E-05,-8.39E-06
0.163038462,-3.52E-06,0.000279469,-1.39E-05
0.163557692,-4.53E-06,0.000249592,-2.10E-05
0.164076923,-4.53E-06,-4.53E-06,-3.11E-05
0.164596154,-1.51E-06,-8.16E-05,-4.26E-05
0.165115385,-4.20E-06,-0.000109941,-4.48E-05
0.165634615,-3.52E-06,-0.00011783,-4.11E-05
0.166153846,-4.20E-06,-0.000134112,-3.44E-05
0.166673077,-4.53E-06,-0.000126055,-4.28E-05
0.167192308,-5.87E-06,-0.000129412,-4.99E-05
0.167711538,-3.52E-06,-0.000130083,-4.78E-05
0.168230769,8.39E-07,-6.83E-05,-3.34E-05
0.16875,1.51E-06,4.35E-05,-1.09E-05
0.169269231,-1.17E-06,0.0001561,-3.86E-06
0.169788462,2.52E-06,0.000190005,-6.38E-06
0.170307692,1.68E-07,8.85E-05,-1.93E-05
0.170826923,-3.69E-06,-5.66E-05,-3.39E-05
0.171346154,-3.02E-06,-0.000153246,-4.28E-05
0.171865385,-3.36E-07,-0.000224079,-4.72E-05
0.172384615,1.85E-06,-0.000263355,-4.21E-05
0.172903846,6.55E-06,-0.000120684,-2.40E-05
0.173423077,5.20E-06,1.80E-05,-4.53E-06
0.173942308,3.86E-06,5.46E-05,3.02E-06
0.174461538,2.01E-06,0.000111955,8.39E-07
0.174980769,1.68E-06,0.000174899,0
0.1755,1.68E-06,0.000194873,-1.51E-06
0.176019231,3.86E-06,0.00017641,-9.06E-06
0.176538462,-1.01E-06,8.01E-05,-1.90E-05
0.177057692,-3.52E-06,-6.68E-05,-3.12E-05
0.177576923,-5.20E-06,-0.000117662,-3.05E-05
0.178096154,-8.22E-06,-5.96E-05,-2.45E-05
0.178615385,-9.06E-06,-3.71E-05,-1.90E-05
0.179134615,-7.55E-06,-0.000219043,-1.16E-05
0.179653846,-2.01E-06,-0.000223239,-4.70E-06
0.180173077,-3.36E-07,-0.00011632,-5.54E-06
0.180692308,-5.04E-06,-3.56E-05,-2.52E-06
0.181211538,-2.85E-06,-1.53E-05,2.85E-06
0.181730769,-2.35E-06,-6.55E-06,-2.85E-06
0.18225,-1.85E-06,9.55E-05,-1.24E-05
0.182769231,-4.87E-06,0.000196887,-2.22E-05
0.183288462,-6.88E-06,0.000218372,-2.58E-05
0.183807692,-7.55E-06,0.000110948,-2.53E-05
0.184326923,-9.90E-06,-7.55E-05,-1.76E-05
0.184846154,-7.89E-06,-8.91E-05,-1.83E-05
0.185365385,-5.04E-06,-4.25E-05,-1.49E-05
0.185884615,-5.87E-06,-4.72E-05,-1.43E-05
0.186403846,-7.55E-06,-5.89E-05,-9.23E-06
0.186923077,-4.53E-06,-7.44E-05,-1.02E-05
0.187442308,-7.05E-06,1.19E-05,-1.23E-05
0.187961538,-7.89E-06,5.32E-05,-1.73E-05
0.188480769,-8.22E-06,1.06E-05,-1.36E-05
0.189,-6.38E-06,-3.05E-05,-1.09E-05
0.189519231,-3.19E-06,-9.85E-05,-1.46E-05
0.190038462,-3.86E-06,-0.00022475,-2.11E-05
0.190557692,-7.22E-06,-0.000440269,-3.81E-05
0.191076923,-1.29E-05,-0.000388907,-4.46E-05
0.191596154,-7.89E-06,-0.000276112,-3.26E-05
0.192115385,-1.51E-06,-0.000105241,-9.57E-06
0.192634615,-1.68E-07,5.49E-05,1.24E-05
0.193153846,-1.51E-06,0.000186816,1.73E-05
0.193673077,-1.85E-06,0.000199573,-3.36E-07
0.194192308,-6.21E-06,0.000136294,-1.24E-05
0.194711538,-9.74E-06,0.000110277,-1.49E-05
0.195230769,-1.01E-05,9.08E-05,-5.87E-06
0.19575,-1.06E-05,0.00013344,2.35E-06
0.196269231,-9.90E-06,9.38E-05,6.55E-06
0.196788462,-1.09E-05,-4.68E-05,2.69E-06
0.197307692,-8.90E-06,-0.000176074,1.34E-06
0.197826923,-7.89E-06,-0.000201419,-1.02E-05
0.198346154,-7.05E-06,-0.00019353,-1.80E-05
0.198865385,-6.21E-06,-0.000169696,-2.23E-05
0.199384615,-6.71E-06,-8.66E-05,-2.79E-05
0.199903846,-8.56E-06,2.85E-06,-2.47E-05
0.200423077,-6.38E-06,3.74E-05,-2.84E-05
0.200942308,-1.12E-05,1.86E-05,-3.17E-05
0.201461538,-4.87E-06,-2.06E-05,-2.99E-05
0.201980769,-5.54E-06,-4.88E-05,-2.64E-05
0.2025,-4.53E-06,-3.26E-05,-2.47E-05
0.203019231,-5.04E-06,-3.04E-05,-2.90E-05
0.203538462,-6.55E-06,-6.73E-05,-2.64E-05
0.204057692,-6.88E-06,-9.28E-05,-2.57E-05
0.204576923,-7.55E-06,-9.11E-05,-2.00E-05
0.205096154,-5.54E-06,-7.15E-05,-2.10E-05
0.205615385,-6.55E-06,-4.31E-05,-1.98E-05
0.206134615,-7.89E-06,-1.58E-05,-1.41E-05
0.206653846,-7.89E-06,4.87E-06,-1.16E-05
0.207173077,-6.21E-06,2.64E-05,-3.86E-06
0.207692308,-6.88E-06,2.06E-05,8.39E-07
0.208211538,-6.21E-06,9.74E-06,1.85E-06
0.208730769,-2.85E-06,2.67E-05,1.51E-06
0.20925,-4.20E-06,2.53E-05,-3.36E-07
0.209769231,-5.20E-06,3.34E-05,-1.85E-06
0.210288462,-2.85E-06,3.59E-05,-1.36E-05
0.210807692,5.04E-07,-1.16E-05,-1.56E-05
0.211326923,-3.02E-06,-1.28E-05,-1.06E-05
0.211846154,-1.85E-06,1.86E-05,-1.16E-05
0.212365385,-6.55E-06,1.61E-05,-1.43E-05
0.212884615,-4.87E-06,-1.85E-06,-1.34E-05
0.213403846,-9.74E-06,-2.55E-05,-6.55E-06
0.213923077,-3.19E-06,1.68E-06,1.01E-06
0.214442308,-3.52E-06,0.000111284,4.20E-06
0.214961538,-1.17E-06,0.000298268,1.85E-06
0.215480769,-4.36E-06,0.000446983,-5.87E-06
0.216,-7.22E-06,0.00032697,-1.31E-05
0.216519231,-7.05E-06,5.89E-05,-1.70E-05
0.217038462,-5.87E-06,-1.26E-05,-2.25E-05
0.217557692,-5.87E-06,-5.76E-05,-2.27E-05
0.218076923,-8.90E-06,-0.000280812,-1.33E-05
0.218596154,-1.12E-05,-0.000382528,-1.83E-05
0.219115385,-7.72E-06,-0.000229786,-1.70E-05
0.219634615,-5.54E-06,1.98E-05,-1.73E-05
0.220153846,-4.87E-06,0.000151568,-1.59E-05
0.220673077,-8.56E-06,0.000142,-1.83E-05
0.221192308,-5.37E-06,6.16E-05,-1.90E-05
0.221711538,-7.89E-06,-9.13E-05,-2.03E-05
0.222230769,-8.56E-06,-0.00011313,-2.10E-05
0.22275,-1.02E-05,-4.60E-05,-1.63E-05
0.223269231,-8.22E-06,1.28E-05,-8.06E-06
0.223788462,-7.55E-06,4.25E-05,-3.19E-06
0.224307692,-7.89E-06,5.87E-06,-3.69E-06
0.224826923,-8.90E-06,-9.82E-05,-1.19E-05
0.225346154,-7.05E-06,-0.000148714,-2.06E-05
0.225865385,-7.55E-06,-0.000121691,-1.56E-05
0.226384615,-6.21E-06,-5.00E-05,-7.05E-06
0.226903846,-7.72E-06,3.11E-05,8.39E-07
0.227423077,-6.55E-06,8.34E-05,6.21E-06
0.227942308,-9.23E-06,7.64E-05,-2.01E-06
0.228461538,-6.21E-06,-1.51E-05,-1.02E-05
0.228980769,-7.39E-06,-9.99E-05,-1.96E-05
0.2295,-6.55E-06,-0.000108934,-2.47E-05
0.230019231,-1.68E-07,-8.95E-05,-2.57E-05
0.230538462,-4.53E-06,-5.39E-05,-2.06E-05
0.231057692,-4.87E-06,5.15E-05,-1.26E-05
0.231576923,-2.35E-06,0.000117662,-1.36E-05
0.232096154,-3.69E-06,-2.45E-05,-1.53E-05
0.232615385,-7.05E-06,-3.84E-05,-2.25E-05
0.233134615,-1.16E-05,5.87E-06,-3.21E-05
0.233653846,-4.70E-06,7.15E-05,-2.67E-05
0.234173077,-4.87E-06,0.000114305,-1.63E-05
0.234692308,-4.87E-06,0.000157275,-1.12E-05
0.235211538,-3.52E-06,0.000187655,-6.04E-06
0.235730769,-3.52E-06,0.000219043,2.52E-06
0.23625,0,0.000186816,3.86E-06
0.236769231,5.04E-07,-1.23E-05,6.71E-07
0.237288462,-1.51E-06,-0.000179767,-1.09E-05
0.237807692,-1.85E-06,-0.000271412,-2.40E-05
0.238326923,-4.87E-06,-0.00035668,-4.21E-05
0.238846154,-8.73E-06,-0.000282322,-4.01E-05
0.239365385,-8.73E-06,-0.000127901,-1.63E-05
0.239884615,-8.73E-06,-9.99E-05,-2.52E-06
0.240403846,-7.89E-06,9.40E-06,8.73E-06
0.240923077,-8.56E-06,6.73E-05,1.73E-05
0.241442308,-9.23E-06,5.42E-05,1.48E-05
0.241961538,-9.57E-06,9.40E-06,9.40E-06
0.242480769,-9.57E-06,-7.10E-05,1.17E-06
0.243,-8.56E-06,-0.000108431,-7.22E-06
0.243519231,-6.88E-06,-0.000101717,-1.17E-05
0.244038462,-5.20E-06,-3.16E-05,-1.53E-05
0.244557692,-6.21E-06,1.70E-05,-1.80E-05
0.245076923,-3.69E-06,0.000107591,-2.05E-05
0.245596154,-2.69E-06,6.70E-05,-2.99E-05
0.246115385,-2.85E-06,-4.40E-05,-4.53E-05
0.246634615,-5.54E-06,-6.23E-05,-4.72E-05
0.247153846,-4.20E-06,-6.55E-06,-4.48E-05
0.247673077,-6.04E-06,2.03E-05,-3.73E-05
0.248192308,-3.86E-06,-2.01E-06,-2.84E-05
0.248711538,-6.21E-06,-8.41E-05,-2.57E-05
0.249230769,-2.35E-06,-0.000133776,-2.17E-05
0.24975,-3.02E-06,-0.000179431,-1.70E-05
0.250269231,-1.01E-06,-0.000155428,-1.96E-05
0.250788462,5.04E-07,-2.30E-05,-1.61E-05
0.251307692,1.51E-06,0.000106752,-6.55E-06
0.251826923,1.85E-06,0.000231968,2.52E-06
0.252346154,4.53E-06,0.000343587,-7.89E-06
0.252865385,1.68E-07,0.000362219,-2.27E-05
0.253384615,-2.85E-06,0.000284337,-3.44E-05
0.253903846,-2.85E-06,8.04E-05,-3.07E-05
0.254423077,-3.86E-06,-0.0002318,-1.39E-05
0.254942308,-5.37E-06,-0.000403677,7.39E-06
0.255461538,-4.20E-06,-0.000260838,1.96E-05
0.255980769,-3.86E-06,-8.39E-07,1.39E-05
0.2565,-7.22E-06,8.71E-05,1.01E-06
0.257019231,-5.54E-06,-0.000425834,-2.01E-06
0.257538462,-7.22E-06,-0.000190509,6.04E-06
0.258057692,-5.54E-06,0.000129412,1.31E-05
0.258576923,-3.52E-06,0.000140826,1.93E-05
0.259096154,-7.72E-06,0.000111116,1.80E-05
0.259615385,-7.39E-06,-9.85E-05,9.23E-06
0.260134615,-6.88E-06,-0.000272084,-1.17E-06
0.260653846,-4.70E-06,-0.000190173,-8.39E-06
0.261173077,-5.54E-06,-3.69E-06,-1.73E-05
0.261692308,-3.86E-06,2.50E-05,-3.51E-05
0.262211538,-4.20E-06,-0.000116823,-4.11E-05
0.262730769,-3.02E-06,-0.000214176,-5.46E-05
0.26325,-4.20E-06,-0.000239353,-6.23E-05
0.263769231,-4.53E-06,-0.000239185,-6.06E-05
0.264288462,-6.21E-06,-0.000195377,-5.32E-05
0.264807692,-3.86E-06,-0.000133104,-4.67E-05
0.265326923,-1.68E-06,-0.000120012,-4.77E-05
0.265846154,-4.20E-06,-0.000125383,-4.88E-05
0.266365385,-4.53E-06,-0.00012723,-4.11E-05
0.266884615,-5.04E-07,-0.000127733,-3.58E-05
0.267403846,-4.20E-06,-0.000133104,-3.74E-05
0.267923077,-4.20E-06,-0.000123033,-3.58E-05
0.268442308,-4.87E-06,-8.54E-05,-3.04E-05
0.268961538,-1.68E-06,-3.68E-05,-2.25E-05
0.269480769,3.19E-06,1.68E-07,-1.91E-05
0.27,1.85E-06,3.12E-05,-1.44E-05
0.270519231,1.85E-06,2.47E-05,-1.29E-05
0.271038462,1.68E-07,1.12E-05,-2.05E-05
0.271557692,-1.68E-07,1.04E-05,-2.38E-05
0.272076923,-1.01E-06,1.09E-05,-2.67E-05
0.272596154,-4.20E-06,-1.85E-06,-2.06E-05
0.273115385,-2.01E-06,2.52E-06,-1.66E-05
0.273634615,-3.02E-06,2.52E-05,-6.71E-06
0.274153846,-6.71E-07,4.52E-05,3.19E-06
0.274673077,1.51E-06,8.83E-05,1.02E-05
0.275192308,5.04E-07,0.000169863,7.55E-06
0.275711538,3.36E-07,0.00017641,9.23E-06
0.276230769,3.19E-06,0.000213169,1.23E-05
0.27675,-1.01E-06,0.000152575,7.89E-06
0.277269231,-2.85E-06,5.59E-05,7.22E-06
0.277788462,1.51E-06,7.03E-05,3.86E-06
0.278307692,2.18E-06,-2.70E-05,-5.20E-06
0.278826923,-5.04E-07,9.57E-06,-1.56E-05
0.279346154,-1.17E-06,0.000107927,-1.80E-05
0.279865385,-3.86E-06,6.97E-05,-1.80E-05
0.280384615,-6.88E-06,-1.91E-05,-1.93E-05
0.280903846,-7.89E-06,-5.17E-05,-1.76E-05
0.281423077,-4.53E-06,-6.06E-05,-1.46E-05
0.281942308,-4.87E-06,-4.36E-05,-1.83E-05
0.282461538,-7.89E-06,-2.52E-06,-2.23E-05
0.282980769,-5.71E-06,5.22E-05,-2.17E-05
0.2835,-6.88E-06,8.34E-05,-2.03E-05
0.284019231,-8.39E-06,2.00E-05,-2.70E-05
0.284538462,-4.20E-06,-0.000156603,-3.00E-05
0.285057692,-6.55E-06,-0.000221729,-3.66E-05
0.285576923,-5.04E-06,-0.000152071,-3.71E-05
0.286096154,-5.20E-06,-5.93E-05,-2.85E-05
0.286615385,-1.68E-07,9.23E-06,-2.17E-05
0.287134615,-2.35E-06,3.41E-05,-2.10E-05
0.287653846,-3.19E-06,3.11E-05,-1.19E-05
0.288173077,-1.51E-06,4.50E-05,-9.90E-06
0.288692308,-3.02E-06,6.16E-05,-1.76E-05
0.289211538,-6.21E-06,6.53E-05,-2.00E-05
0.289730769,-1.04E-05,1.96E-05,-3.84E-05
0.29025,-1.28E-05,-2.10E-05,-4.60E-05
0.290769231,-8.39E-06,-2.47E-05,-3.31E-05
0.291288462,-5.54E-06,5.76E-05,-1.90E-05
0.291807692,-5.71E-06,0.00013109,-5.87E-06
0.292326923,-4.20E-06,3.84E-05,2.13E-05
0.292846154,-3.86E-06,-0.000204608,3.58E-05
0.293365385,-2.85E-06,-0.000101549,3.54E-05
0.293884615,-2.01E-06,-2.35E-06,2.79E-05
0.294403846,-1.51E-06,1.39E-05,1.14E-05
0.294923077,-8.73E-06,2.37E-05,-2.85E-06
0.295442308,-1.17E-05,-8.39E-06,-3.86E-06
0.295961538,-1.36E-05,-5.39E-05,2.52E-06
0.296480769,-9.23E-06,-3.47E-05,9.23E-06
0.297,-8.56E-06,1.90E-05,9.23E-06
0.297519231,-9.23E-06,4.60E-05,3.86E-06
0.298038462,-7.89E-06,4.75E-05,-5.54E-06
0.298557692,-2.18E-06,4.41E-05,-2.18E-05
0.299076923,-3.02E-06,6.23E-05,-2.84E-05
0.299596154,-4.70E-06,0.000105745,-3.78E-05
0.300115385,-7.55E-06,0.00012874,-4.48E-05
0.300634615,-5.71E-06,0.000137133,-4.06E-05
0.301153846,-5.04E-06,0.000158618,-3.51E-05
0.301673077,-3.86E-06,0.000153918,-3.51E-05
0.302192308,-5.04E-06,0.000163989,-3.47E-05
0.302711538,-7.22E-06,0.00018732,-3.83E-05
0.303230769,-5.87E-06,0.000184466,-4.58E-05
0.30375,-9.57E-06,0.000129244,-4.08E-05
0.304269231,-6.55E-06,-8.01E-05,-3.83E-05
0.304788462,-7.89E-06,-0.000303639,-2.50E-05
0.305307692,-2.85E-06,-0.000205951,-8.90E-06
0.305826923,-5.87E-06,-0.000122026,-3.52E-06
0.306346154,-2.85E-06,-7.89E-05,-5.04E-07
0.306865385,5.04E-07,2.45E-05,2.52E-06
0.307384615,1.17E-06,0.000119677,7.72E-06
0.307903846,1.34E-06,0.000123369,3.52E-06
0.308423077,-1.68E-06,-5.87E-06,5.04E-07
0.308942308,3.52E-06,-8.85E-05,-4.53E-06
0.309461538,2.85E-06,-0.000112963,-4.70E-06
0.309980769,4.53E-06,-0.000151232,1.85E-06
0.3105,-1.68E-07,-0.000167178,-6.88E-06
0.311019231,-2.52E-06,-0.000148882,-1.39E-05
0.311538462,-8.39E-07,-0.000206455,-1.56E-05
0.312057692,-1.85E-06,-0.000261677,-1.33E-05
0.312576923,-2.18E-06,-0.000247578,-6.38E-06
0.313096154,5.04E-07,-0.00013579,-4.70E-06
0.313615385,-8.39E-07,-6.88E-06,-6.21E-06
0.314134615,-8.39E-07,3.98E-05,-7.89E-06
0.314653846,1.17E-06,3.31E-05,-8.56E-06
0.315173077,5.04E-07,3.96E-05,-5.54E-06
0.315692308,-2.35E-06,8.44E-05,-6.55E-06
0.316211538,-1.01E-06,0.000117327,-9.23E-06
0.316730769,-3.36E-07,0.000145525,-1.09E-05
0.31725,-1.68E-07,0.00014284,-9.57E-06
0.317769231,-6.04E-06,0.000170199,-1.04E-05
0.318288462,-7.22E-06,0.000179263,-9.23E-06
0.318807692,-4.20E-06,-2.57E-05,-1.19E-05
0.319326923,-1.01E-06,-0.000399985,-1.59E-05
0.319846154,-1.34E-06,-0.000511437,-2.67E-05
0.320365385,-4.87E-06,-0.000335195,-2.64E-05
0.320884615,-3.19E-06,-4.97E-05,-2.10E-05
0.321403846,-2.18E-06,4.18E-05,-1.19E-05
0.321923077,-3.52E-06,6.34E-05,-5.87E-06
0.322442308,-2.18E-06,5.35E-05,-3.02E-06
0.322961538,-4.70E-06,3.74E-05,-1.51E-06
0.323480769,-6.21E-06,1.26E-05,-2.52E-06
0.324,-7.22E-06,-9.90E-06,-4.87E-06
0.324519231,-4.53E-06,1.73E-05,-8.06E-06
0.325038462,-4.87E-06,-1.68E-07,-1.04E-05
0.325557692,-3.69E-06,3.02E-06,-1.31E-05
0.326076923,-5.54E-06,2.05E-05,-1.80E-05
0.326596154,-9.74E-06,2.32E-05,-2.00E-05
0.327115385,-9.57E-06,-3.58E-05,-1.59E-05
0.327634615,-7.55E-06,-0.000128405,-6.38E-06
0.328153846,-5.87E-06,-0.000128405,7.55E-06
0.328673077,-3.86E-06,-6.09E-05,1.33E-05
0.329192308,-7.72E-06,2.33E-05,1.90E-05
0.329711538,-6.55E-06,0.000129747,1.23E-05
0.330230769,-1.68E-06,0.000170703,3.69E-06
0.33075,-5.54E-06,7.77E-05,-1.39E-05
0.331269231,-3.86E-06,-9.45E-05,-2.80E-05
0.331788462,-6.55E-06,-0.000158953,-3.34E-05
0.332307692,-6.55E-06,-2.94E-05,-3.27E-05
0.332826923,-4.36E-06,0.000176745,-3.07E-05
0.333346154,-6.21E-06,0.000188159,-3.04E-05
0.333865385,-9.74E-06,9.15E-05,-2.97E-05
0.334384615,-1.11E-05,-1.44E-05,-2.80E-05
0.334903846,-1.24E-05,-0.000276448,-3.51E-05
0.335423077,-6.55E-06,-0.000317906,-3.24E-05
0.335942308,-5.37E-06,-0.000149554,-2.47E-05
0.336461538,-1.85E-06,2.17E-05,-2.28E-05
0.336980769,-3.52E-06,-2.30E-05,-3.27E-05
0.3375,-1.02E-05,-9.21E-05,-4.73E-05
0.338019231,-9.90E-06,-0.000156603,-5.42E-05
0.338538462,-8.90E-06,-0.000176913,-5.07E-05
0.339057692,-4.87E-06,-0.000137469,-3.59E-05
0.339576923,-2.85E-06,-0.000129915,-2.52E-05
0.340096154,-6.88E-06,-9.18E-05,-2.30E-05
0.340615385,-4.70E-06,-0.000102556,-2.23E-05
0.341134615,-8.22E-06,-0.000128069,-2.32E-05
0.341653846,-1.56E-05,-0.000133272,-2.77E-05
0.342173077,-1.39E-05,-0.000153918,-3.51E-05
0.342692308,-1.23E-05,-0.000107088,-3.56E-05
0.343211538,-1.56E-05,-0.000113466,-2.89E-05
0.343730769,-1.39E-05,-8.56E-05,-2.03E-05
0.34425,-8.90E-06,1.41E-05,-1.56E-05
0.344769231,-9.23E-06,5.25E-05,-1.24E-05
0.345288462,-5.54E-06,6.90E-05,-7.72E-06
0.345807692,-2.52E-06,7.20E-05,-4.03E-06
0.346326923,-3.86E-06,4.11E-05,-1.01E-06
0.346846154,1.01E-06,2.33E-05,-4.53E-06
0.347365385,5.04E-07,3.86E-05,-1.29E-05
0.347884615,-4.53E-06,7.44E-05,-1.34E-05
0.348403846,-6.38E-06,0.000100374,-1.17E-05
0.348923077,-6.55E-06,0.000121523,-5.71E-06
0.349442308,-7.22E-06,0.000147036,-4.03E-06
0.349961538,-8.39E-07,0.0001561,-2.35E-06
0.350480769,5.04E-07,0.000107256,-5.20E-06
0.351,-2.52E-06,-2.85E-06,-1.12E-05
0.351519231,0,-0.000118334,-8.90E-06
0.352038462,3.86E-06,-0.000154925,4.87E-06
0.352557692,2.35E-06,-8.48E-05,0
0.353076923,4.36E-06,5.20E-06,-1.12E-05
0.353596154,-1.01E-06,1.39E-05,-2.90E-05
0.354115385,-4.20E-06,-6.78E-05,-3.68E-05
0.354634615,-3.36E-06,-0.00010222,-2.80E-05
0.355153846,-4.36E-06,-5.93E-05,-1.11E-05
0.355673077,-5.04E-07,4.20E-06,1.68E-07
0.356192308,-2.52E-06,5.20E-05,2.52E-06
0.356711538,-4.87E-06,5.86E-05,1.51E-06
0.357230769,-3.69E-06,4.90E-05,-1.68E-07
0.35775,-6.88E-06,8.02E-05,5.04E-07
0.358269231,-1.06E-05,0.00013579,-2.85E-06
0.358788462,-9.23E-06,0.00016936,-5.87E-06
0.359307692,-8.39E-06,0.000165835,-7.39E-06
0.359826923,-8.56E-06,6.56E-05,-5.20E-06
0.360346154,-9.06E-06,-1.49E-05,-2.35E-06
0.360865385,-7.89E-06,-7.60E-05,1.51E-06
0.361384615,-9.57E-06,-0.000102052,2.18E-06
0.361903846,-7.22E-06,-4.82E-05,-1.51E-06
0.362423077,-5.87E-06,2.52E-05,-5.20E-06
0.362942308,-2.01E-06,3.78E-05,-1.29E-05
0.363461538,-3.52E-06,9.23E-06,-2.37E-05
0.363980769,-5.20E-06,-5.20E-06,-3.14E-05
0.3645,-7.55E-06,-7.02E-05,-3.73E-05
0.365019231,-7.55E-06,-0.000185138,-4.92E-05
0.365538462,-9.90E-06,-0.000262516,-5.19E-05
0.366057692,-1.11E-05,-0.000180438,-5.37E-05
0.366576923,-1.26E-05,-9.01E-05,-5.59E-05
0.367096154,-8.56E-06,-2.77E-05,-4.38E-05
0.367615385,-7.55E-06,2.10E-05,-3.44E-05
0.368134615,-8.56E-06,4.65E-05,-3.12E-05
0.368653846,-9.57E-06,5.79E-05,-2.50E-05
0.369173077,-1.02E-05,7.47E-05,-2.53E-05
0.369692308,-8.90E-06,8.71E-05,-3.00E-05
0.370211538,-1.04E-05,8.31E-05,-2.43E-05
0.370730769,-6.88E-06,0.000100038,-1.96E-05
0.37125,-3.02E-06,0.000132097,-7.55E-06
0.371769231,-8.39E-07,0.000113634,5.54E-06
0.372288462,-5.04E-07,-5.81E-05,7.55E-06
0.372807692,2.18E-06,-0.00026537,4.36E-06
0.373326923,7.55E-06,-0.000326467,-3.86E-06
0.373846154,4.20E-06,-0.000307164,-1.88E-05
0.374365385,-1.01E-06,-0.000257313,-2.84E-05
0.374884615,-3.02E-06,-0.000216022,-3.17E-05
0.375403846,-2.85E-06,-0.000168521,-3.05E-05
0.375923077,-2.85E-06,-5.19E-05,-1.70E-05
0.376442308,-5.04E-07,-5.04E-06,-7.39E-06
0.376961538,-6.71E-07,3.61E-05,-7.05E-06
0.377480769,2.18E-06,0.000223407,-9.90E-06
0.378,-5.04E-07,0.000370947,-1.81E-05
0.378519231,-1.85E-06,0.000409049,-2.17E-05
0.379038462,-2.85E-06,0.000352819,-2.70E-05
0.379557692,-1.01E-06,1.80E-05,-2.22E-05
0.380076923,-2.35E-06,-0.00011313,-1.59E-05
0.380596154,-2.18E-06,-1.90E-05,-9.57E-06
0.381115385,1.34E-06,8.31E-05,-2.85E-06
0.381634615,-1.51E-06,0.000101717,-1.68E-07
0.382153846,-1.51E-06,3.68E-05,-5.54E-06
0.382673077,-3.69E-06,-3.93E-05,-1.63E-05
0.383192308,-3.52E-06,-0.000130083,-2.13E-05
0.383711538,-6.21E-06,-0.00018967,-2.99E-05
0.384230769,-5.20E-06,-0.000183124,-3.04E-05
0.38475,-4.20E-06,-4.95E-05,-2.52E-05
0.385269231,-9.90E-06,3.64E-05,-2.17E-05
0.385788462,-6.21E-06,0.000192355,-1.16E-05
0.386307692,-9.90E-06,0.000260334,8.39E-07
0.386826923,-8.22E-06,5.04E-06,1.01E-05
0.387346154,-2.85E-06,-0.000327306,9.23E-06
0.387865385,-3.19E-06,-0.00027393,7.55E-06
0.388384615,-2.18E-06,4.67E-05,5.04E-07
0.388903846,-2.85E-06,0.000134112,2.18E-06
0.389423077,5.04E-07,-1.93E-05,-2.85E-06
0.389942308,-8.39E-07,1.83E-05,-1.43E-05
0.390461538,-1.51E-06,7.40E-05,-1.86E-05
0.390980769,-4.36E-06,2.13E-05,-3.19E-05
0.3915,-4.20E-06,-0.000110613,-4.36E-05
0.392019231,-3.69E-06,-0.000231464,-4.40E-05
0.392538462,-6.71E-06,-0.000294743,-2.92E-05
0.393057692,-6.88E-06,-0.000198901,-1.14E-05
0.393576923,-3.52E-06,-4.15E-05,5.04E-06
0.394096154,-2.85E-06,0.000129747,7.55E-06
0.394615385,-2.85E-06,0.000196048,1.02E-05
0.395134615,-2.52E-06,0.00014435,1.12E-05
0.395653846,-5.54E-06,1.36E-05,6.55E-06
0.396173077,-5.20E-06,-7.55E-05,-8.39E-07
0.396692308,-1.17E-06,-0.000106584,-3.36E-07
0.397211538,-3.19E-06,-8.19E-05,2.35E-06
0.397730769,-2.52E-06,-5.17E-05,6.71E-06
0.39825,-3.52E-06,2.03E-05,8.39E-06
0.398769231,-5.04E-06,9.99E-05,4.20E-06
0.399288462,-4.03E-06,0.000145693,-5.54E-06
0.399807692,-5.54E-06,0.000116823,-2.13E-05
0.400326923,-6.21E-06,4.16E-05,-3.37E-05
0.400846154,-5.87E-06,-6.60E-05,-3.84E-05
0.401365385,-8.56E-06,-0.000152911,-3.46E-05
0.401884615,-1.04E-05,-0.000151736,-3.27E-05
0.402403846,-7.39E-06,-0.000128908,-2.94E-05
0.402923077,-4.36E-06,-9.95E-05,-2.77E-05
0.403442308,-6.55E-06,-8.66E-05,-4.08E-05
0.403961538,-9.06E-06,-0.000101549,-4.31E-05
0.404480769,-1.04E-05,-9.18E-05,-3.74E-05
0.405,-8.39E-06,-8.38E-05,-2.33E-05
0.405519231,-2.85E-06,-6.03E-05,-1.16E-05
0.406038462,-5.54E-06,-2.52E-06,-5.04E-06
0.406557692,-6.88E-06,7.91E-05,-3.36E-07
0.407076923,-5.04E-06,0.00018967,4.87E-06
0.407596154,-5.87E-06,0.000312535,2.52E-06
0.408115385,-5.04E-06,0.000299947,-7.55E-06
0.408634615,-7.55E-06,0.000294072,-1.75E-05
0.409153846,-1.33E-05,0.000272084,-1.95E-05
0.409673077,-1.46E-05,7.55E-05,-1.51E-05
0.410192308,-1.38E-05,-0.000509758,2.52E-06
0.410711538,-1.36E-05,-0.000921828,1.43E-05
0.411230769,-8.56E-06,-0.000323781,9.74E-06
0.41175,-1.01E-05,1.76E-05,8.39E-06
0.412269231,-9.90E-06,-2.79E-05,4.70E-06
0.412788462,-7.72E-06,-0.000115648,-2.52E-06
0.413307692,-8.39E-06,-0.000116655,-1.04E-05
0.413826923,-1.02E-05,-4.18E-05,-1.80E-05
0.414346154,-8.73E-06,-1.64E-05,-2.30E-05
0.414865385,-9.90E-06,-2.18E-06,-3.24E-05
0.415384615,-9.90E-06,2.97E-05,-4.13E-05
0.415903846,-1.06E-05,6.76E-05,-4.58E-05
0.416423077,-7.89E-06,7.97E-05,-5.00E-05
0.416942308,-4.87E-06,3.34E-05,-5.15E-05
0.417461538,-4.87E-06,-3.37E-05,-4.57E-05
0.417980769,-6.88E-06,-5.62E-05,-3.84E-05
0.4185,-9.74E-06,-2.57E-05,-3.17E-05
0.419019231,-8.22E-06,-1.49E-05,-2.64E-05
0.419538462,-5.71E-06,-3.74E-05,-2.33E-05
0.420057692,-7.39E-06,-0.000115984,-1.95E-05
0.420576923,-8.22E-06,-0.000148714,-2.23E-05
0.421096154,-7.22E-06,-0.00010457,-3.29E-05
0.421615385,-6.88E-06,-5.99E-05,-2.77E-05
0.422134615,-4.87E-06,-2.40E-05,-1.96E-05
0.422653846,-4.20E-06,9.23E-06,-1.24E-05
0.423173077,-2.85E-06,7.55E-05,-9.06E-06
0.423692308,-5.04E-07,0.000142672,-5.71E-06
0.424211538,5.04E-07,0.000156771,-1.26E-05
0.424730769,1.17E-06,9.70E-05,-2.15E-05
0.42525,-5.04E-07,-1.07E-05,-1.76E-05
0.425769231,-1.17E-06,-3.78E-05,-1.06E-05
0.426288462,-4.03E-06,-3.44E-05,-1.19E-05
0.426807692,-4.87E-06,-5.20E-06,-1.26E-05
0.427326923,-1.51E-06,-0.00013109,-1.70E-05
0.427846154,3.19E-06,-0.000237339,-1.85E-05
0.428365385,1.68E-06,-0.000132433,-9.23E-06
0.428884615,2.85E-06,-2.92E-05,3.52E-06
0.429403846,3.19E-06,3.02E-06,2.52E-06
0.429923077,2.18E-06,-2.60E-05,-3.36E-06
0.430442308,-1.68E-07,-1.39E-05,-7.55E-06
0.430961538,2.01E-06,1.78E-05,-5.87E-06
0.431480769,2.85E-06,2.52E-06,-3.86E-06
0.432,8.39E-07,-2.38E-05,-4.87E-06
0.432519231,-2.35E-06,-1.12E-05,-1.73E-05
0.433038462,-2.85E-06,1.68E-05,-2.74E-05
0.433557692,-3.52E-06,4.38E-05,-3.09E-05
0.434076923,-1.17E-06,3.32E-05,-3.05E-05
0.434596154,1.17E-06,6.19E-05,-1.93E-05
0.435115385,1.85E-06,9.45E-05,-8.39E-06
0.435634615,-2.35E-06,-9.62E-05,-8.22E-06
0.436153846,-2.52E-06,-0.000170031,-5.54E-06
0.436673077,8.39E-07,-7.70E-05,-4.36E-06
0.437192308,-5.04E-07,3.07E-05,-2.85E-06
0.437711538,2.69E-06,7.30E-05,-7.55E-06
0.438230769,8.39E-07,0.000130587,-8.22E-06
0.43875,1.68E-06,0.000187823,-3.52E-06
0.439269231,-2.18E-06,0.000196887,-4.53E-06
0.439788462,-5.04E-07,0.000159792,-1.04E-05
0.440307692,-2.18E-06,0.000105074,-1.21E-05
0.440826923,-5.54E-06,3.81E-05,-1.66E-05
0.441346154,-3.86E-06,-1.91E-05,-6.38E-06
0.441865385,1.17E-06,-6.73E-05,3.52E-06
0.442384615,1.17E-06,-9.01E-05,-3.69E-06
0.442903846,3.52E-06,-8.14E-05,-2.23E-05
0.443423077,3.52E-06,-0.000155932,-3.31E-05
0.443942308,3.36E-06,-0.000206119,-3.26E-05
0.444461538,1.85E-06,-0.000156939,-2.69E-05
0.444980769,-3.52E-06,-5.66E-05,-1.23E-05
0.4455,8.39E-07,2.30E-05,-1.39E-05
0.446019231,2.18E-06,4.46E-05,-1.43E-05
0.446538462,-2.52E-06,2.55E-05,-1.33E-05
0.447057692,-2.35E-06,-8.22E-06,-6.55E-06
0.447576923,-5.54E-06,-0.000101381,-2.85E-06
0.448096154,-5.54E-06,-0.000172549,-2.52E-06
0.448615385,-3.02E-06,-9.75E-05,-9.06E-06
0.449134615,-1.68E-07,-3.91E-05,-1.26E-05
0.449653846,-2.01E-06,-4.11E-05,-1.09E-05
0.450173077,-5.04E-07,-5.14E-05,-4.53E-06
0.450692308,-3.52E-06,-1.39E-05,-3.52E-06
0.451211538,-1.17E-06,1.26E-05,-3.86E-06
0.451730769,-1.85E-06,-1.49E-05,-1.01E-06
0.45225,-8.39E-07,-2.79E-05,-5.04E-07
0.452769231,-2.18E-06,2.13E-05,-7.39E-06
0.453288462,-6.88E-06,0.000163989,-1.66E-05
0.453807692,-5.87E-06,0.000181781,-2.52E-05
0.454326923,-3.19E-06,-6.29E-05,-3.11E-05
0.454846154,-6.21E-06,-0.000143847,-3.11E-05
0.455365385,-2.35E-06,1.80E-05,-2.50E-05
0.455884615,-2.35E-06,7.00E-05,-2.03E-05
0.456403846,-3.69E-06,9.23E-06,-1.44E-05
0.456923077,-2.18E-06,1.06E-05,-1.23E-05
0.457442308,-4.87E-06,6.88E-05,-1.49E-05
0.457961538,-1.01E-06,5.17E-05,-9.90E-06
0.458480769,-1.68E-06,-4.78E-05,-1.59E-05
0.459,-2.35E-06,-5.82E-05,-2.11E-05
0.459519231,-3.19E-06,1.33E-05,-2.37E-05
0.460038462,-2.35E-06,5.32E-05,-1.93E-05
0.460557692,5.04E-07,0.000107591,-7.22E-06
0.461076923,-1.17E-06,0.000172213,2.85E-06
0.461596154,-2.52E-06,0.000198398,5.20E-06
0.462115385,-2.35E-06,0.000131929,5.54E-06
0.462634615,-6.88E-06,5.54E-05,-1.68E-07
0.463153846,-8.22E-06,6.43E-05,-9.90E-06
0.463673077,-1.02E-05,0.000147539,-1.09E-05
0.464192308,-1.09E-05,6.50E-05,-1.16E-05
0.464711538,-6.88E-06,-0.000144015,-1.49E-05
0.465230769,-7.72E-06,-0.000233814,-1.73E-05
0.46575,-8.39E-06,-9.68E-05,-7.39E-06
0.466269231,-1.09E-05,0.000174731,2.18E-06
0.466788462,-7.22E-06,0.000208637,1.68E-07
0.467307692,-4.87E-06,-3.37E-05,-3.86E-06
0.467826923,-5.87E-06,0.000142,-1.39E-05
0.468346154,-7.22E-06,0.00020763,-1.78E-05
0.468865385,-5.04E-06,2.00E-05,-2.23E-05
0.469384615,-6.38E-06,-0.000153246,-2.97E-05
0.469903846,-6.55E-06,-0.000493645,-4.11E-05
0.470423077,-7.22E-06,-0.000711345,-4.58E-05
0.470942308,-1.02E-05,-0.000572869,-3.84E-05
0.471461538,-1.29E-05,-0.000312032,-2.43E-05
0.471980769,-1.33E-05,-0.000145525,-1.98E-05
0.4725,-1.33E-05,-0.000170703,-1.90E-05
0.473019231,-1.16E-05,-0.000252277,-1.56E-05
0.473538462,-7.89E-06,-0.00024892,-5.87E-06
0.474057692,-8.56E-06,-0.000134112,-7.89E-06
0.474576923,-8.22E-06,5.99E-05,-2.17E-05
0.475096154,-1.11E-05,0.000162646,-3.96E-05
0.475615385,-1.06E-05,0.000166003,-6.06E-05
0.476134615,-1.29E-05,2.17E-05,-6.97E-05
0.476653846,-1.58E-05,6.06E-05,-6.56E-05
0.477173077,-1.43E-05,0.000217365,-4.67E-05
0.477692308,-1.43E-05,-8.14E-05,-1.56E-05
0.478211538,-1.07E-05,-0.000284169,7.05E-06
0.478730769,-1.28E-05,0.000148211,2.32E-05
0.47925,-1.06E-05,0.000190173,3.04E-05
0.479769231,-8.22E-06,7.10E-05,2.33E-05
0.480288462,-7.22E-06,-1.43E-05,1.86E-05
0.480807692,-3.86E-06,-3.51E-05,5.54E-06
0.481326923,-3.36E-07,-4.53E-06,-5.20E-06
0.481846154,-5.87E-06,-5.54E-06,-8.22E-06
0.482365385,-5.87E-06,-2.05E-05,-1.01E-05
0.482884615,-6.21E-06,-3.09E-05,-1.75E-05
0.483403846,-5.71E-06,-3.64E-05,-1.76E-05
0.483923077,-3.86E-06,-1.86E-05,-1.09E-05
0.484442308,-7.72E-06,4.05E-05,-5.20E-06
0.484961538,-4.53E-06,0.000114305,-9.90E-06
0.485480769,-6.38E-06,0.000156603,-2.05E-05
0.486,-9.57E-06,0.000117998,-3.37E-05
0.486519231,-1.06E-05,-0.000223407,-3.74E-05
0.487038462,-6.88E-06,-0.000383536,-2.94E-05
0.487557692,-4.20E-06,-0.000272923,-2.23E-05
0.488076923,-1.17E-06,-8.98E-05,-1.29E-05
0.488596154,-2.52E-06,2.64E-05,-1.39E-05
0.489115385,-2.85E-06,7.00E-05,-2.10E-05
0.489634615,-7.72E-06,6.90E-05,-2.67E-05
0.490153846,-5.54E-06,5.76E-05,-2.57E-05
0.490673077,-6.38E-06,4.58E-05,-2.90E-05
0.491192308,-6.55E-06,4.05E-05,-2.64E-05
0.491711538,-1.26E-05,2.06E-05,-2.70E-05
0.492230769,-9.57E-06,-3.11E-05,-4.05E-05
0.49275,-9.06E-06,-0.000115312,-5.52E-05
0.493269231,-9.57E-06,-0.00020763,-5.54E-05
0.493788462,-4.36E-06,-0.000199908,-3.73E-05
0.494307692,-5.20E-06,-4.58E-05,-1.95E-05
0.494826923,-1.85E-06,2.67E-05,3.36E-06
0.495346154,-5.54E-06,4.01E-05,1.17E-05
0.495865385,-8.39E-07,2.89E-05,1.46E-05
0.496384615,-1.17E-06,6.46E-05,8.22E-06
0.496903846,-1.17E-06,0.000168353,-1.51E-06
0.497423077,2.18E-06,0.000194537,-7.55E-06
0.497942308,5.04E-07,7.64E-05,-8.56E-06
0.498461538,-2.18E-06,6.50E-05,-5.54E-06
0.498980769,-5.04E-07,8.11E-05,-1.51E-06
0.4995,1.85E-06,0.000132433,6.55E-06
0.500019231,5.20E-06,0.00019118,1.04E-05
0.500538462,7.22E-06,0.00022945,1.16E-05
0.501057692,2.18E-06,0.000197223,-7.39E-06
0.501576923,-1.68E-06,0.000101549,-3.19E-05
0.502096154,-4.36E-06,-1.78E-05,-3.94E-05
0.502615385,-6.38E-06,-0.00019588,-3.98E-05
0.503134615,-6.55E-06,-0.00030045,-3.49E-05
0.503653846,-3.86E-06,-0.000182788,-1.83E-05
0.504173077,1.85E-06,-4.31E-05,-2.52E-06
0.504692308,1.17E-06,3.19E-06,2.52E-06
0.505211538,1.17E-06,-4.10E-05,5.04E-07
0.505730769,2.01E-06,-8.74E-05,-6.88E-06
0.50625,-4.53E-06,-0.000119341,-8.56E-06
0.506769231,-4.87E-06,-0.000129747,-9.74E-06
0.507288462,-6.38E-06,-7.82E-05,-8.39E-06
0.507807692,-8.90E-06,1.19E-05,-7.55E-06
0.508326923,-3.86E-06,2.72E-05,-2.35E-06
0.508846154,-6.88E-06,-1.51E-06,5.04E-07
0.509365385,-5.54E-06,-3.17E-05,-6.21E-06
0.509884615,-7.22E-06,-4.77E-05,-1.53E-05
0.510403846,-6.55E-06,-6.33E-05,-1.95E-05
0.510923077,-3.52E-06,-8.04E-05,-2.60E-05
0.511442308,-4.87E-06,-7.60E-05,-2.77E-05
0.511961538,-3.86E-06,-2.52E-05,-2.00E-05
0.512480769,-4.20E-06,4.21E-05,-1.29E-05
0.513,-3.52E-06,0.000201587,-1.17E-05
0.513519231,-6.38E-06,0.00039881,-1.16E-05
0.514038462,-5.87E-06,0.000483909,-1.09E-05
0.514557692,-7.22E-06,0.000412741,-1.63E-05
0.515076923,-6.88E-06,0.000164157,-2.84E-05
0.515596154,-1.14E-05,-0.000141665,-3.86E-05
0.516115385,-1.04E-05,-0.000420966,-4.38E-05
0.516634615,-1.49E-05,-0.000435904,-4.13E-05
0.517153846,-1.02E-05,-0.000427176,-3.74E-05
0.517673077,-1.09E-05,-0.000409384,-2.60E-05
0.518192308,-1.04E-05,-0.000293233,-2.57E-05
0.518711538,-7.39E-06,-0.000145861,-2.22E-05
0.519230769,-3.86E-06,-4.65E-05,-1.86E-05
0.51975,-2.85E-06,3.86E-06,-1.83E-05
0.520269231,-5.04E-07,-3.61E-05,-2.10E-05
0.520788462,5.04E-07,-8.74E-05,-2.57E-05
0.521307692,-1.85E-06,-9.05E-05,-3.44E-05
0.521826923,-5.71E-06,-8.09E-05,-4.05E-05
0.522346154,-4.20E-06,-7.10E-05,-3.71E-05
0.522865385,-2.85E-06,-2.18E-06,-2.47E-05
0.523384615,-1.51E-06,7.18E-05,-1.16E-05
0.523903846,-1.68E-07,8.98E-05,-3.86E-06
0.524423077,-8.39E-07,9.37E-05,-2.01E-06
0.524942308,-2.85E-06,7.80E-05,1.68E-06
0.525461538,-2.52E-06,8.51E-05,-6.88E-06
0.525980769,-3.86E-06,0.000123873,-1.70E-05
0.5265,-2.18E-06,0.000147539,-2.13E-05
0.527019231,1.85E-06,0.000180102,-2.15E-05
0.527538462,-1.01E-06,0.000228275,-1.80E-05
0.528057692,1.51E-06,0.000251942,-1.49E-05
0.528576923,1.17E-06,0.000140826,-9.74E-06
0.529096154,-1.17E-06,-8.68E-05,-7.72E-06
0.529615385,-2.18E-06,-8.98E-05,5.04E-07
0.530134615,-1.68E-07,-2.64E-05,5.20E-06
0.530653846,6.71E-07,5.57E-05,8.73E-06
0.531173077,2.52E-06,-0.000127398,8.39E-06
0.531692308,6.55E-06,-0.000292897,3.86E-06
0.532211538,-1.17E-06,-0.000190173,-1.49E-05
0.532730769,-5.04E-06,-9.05E-05,-1.96E-05
0.53325,-5.04E-06,-9.48E-05,-1.54E-05
0.533769231,-5.20E-06,-0.000208301,-1.96E-05
0.534288462,-5.54E-06,-0.00026067,-2.99E-05
0.534807692,-4.87E-06,-0.000195544,-3.39E-05
0.535326923,-4.36E-06,-0.000107424,-2.97E-05
0.535846154,-6.55E-06,-4.88E-05,-2.99E-05
0.536365385,-8.39E-06,-1.56E-05,-2.40E-05
0.536884615,-6.04E-06,1.68E-05,-1.63E-05
0.537403846,-2.35E-06,1.75E-05,-1.01E-05
0.537923077,-8.39E-07,-4.05E-05,-9.57E-06
0.538442308,-2.52E-06,-0.000103563,-2.05E-05
0.538961538,-2.18E-06,-0.000137469,-3.17E-05
0.539480769,-3.86E-06,-0.000170367,-3.71E-05
0.54,-2.18E-06,-0.000132265,-2.94E-05
0.540519231,-4.36E-06,-4.58E-05,-1.95E-05
0.541038462,-1.51E-06,6.83E-05,-2.18E-06
0.541557692,-1.68E-07,0.00012253,3.02E-06
0.542076923,-3.86E-06,0.000105241,-8.39E-07
0.542596154,-3.19E-06,2.94E-05,-1.86E-05
0.543115385,-4.53E-06,-2.37E-05,-3.47E-05
0.543634615,-2.85E-06,-4.52E-05,-3.34E-05
0.544153846,-3.02E-06,-3.31E-05,-1.36E-05
0.544673077,-6.38E-06,5.46E-05,6.88E-06
0.545192308,-4.87E-06,0.000151904,2.74E-05
0.545711538,-5.87E-06,0.000134112,2.94E-05
0.546230769,-6.88E-06,4.92E-05,1.83E-05
0.54675,-6.88E-06,1.19E-05,6.71E-06
0.547269231,-6.55E-06,-3.07E-05,-5.87E-06
0.547788462,-5.20E-06,-6.06E-05,-1.12E-05
0.548307692,-4.20E-06,-2.82E-05,-2.42E-05
0.548826923,-3.02E-06,4.36E-05,-3.00E-05
0.549346154,-3.69E-06,9.23E-05,-2.60E-05
0.549865385,-6.21E-06,5.61E-05,-1.90E-05
0.550384615,-6.55E-06,-1.70E-05,-8.56E-06
0.550903846,-7.55E-06,3.47E-05,1.68E-07
0.551423077,-2.18E-06,0.000174899,-1.01E-06
0.551942308,-4.20E-06,0.000290211,-8.22E-06
0.552461538,-4.20E-06,0.000310689,-1.02E-05
0.552980769,-9.90E-06,0.000200244,-1.19E-05
0.5535,-9.57E-06,0.00017406,-1.29E-05
0.554019231,-7.05E-06,0.000211658,-8.39E-06
0.554538462,-6.88E-06,0.000183459,-1.43E-05
0.555057692,-4.53E-06,-0.000150561,-1.80E-05
0.555576923,-6.21E-06,-0.000384543,-1.76E-05
0.556096154,-5.87E-06,-0.000279133,-2.17E-05
0.556615385,-7.72E-06,-0.000149386,-2.03E-05
0.557134615,-8.39E-06,-0.000160128,-1.36E-05
0.557653846,-7.55E-06,-7.74E-05,-1.06E-05
0.558173077,-6.21E-06,-0.000106752,-1.17E-06
0.558692308,-8.22E-06,-0.000253956,-1.68E-06
0.559211538,-5.54E-06,-0.00025832,-3.36E-06
0.559730769,-6.21E-06,-0.000152071,-4.20E-06
0.56025,-9.06E-06,-2.23E-05,-8.22E-06
0.560769231,-8.22E-06,1.12E-05,-2.55E-05
0.561288462,-6.21E-06,-0.000125048,-3.37E-05
0.561807692,-4.87E-06,-0.000167178,-2.80E-05
0.562326923,-5.71E-06,-0.000143511,-3.64E-05
0.562846154,-4.20E-06,-0.000132433,-4.35E-05
0.563365385,-4.87E-06,-0.000158282,-3.99E-05
0.563884615,-6.21E-06,-0.000174731,-4.01E-05
0.564403846,-5.87E-06,-3.47E-05,-3.26E-05
0.564923077,-1.68E-06,0.00013579,-2.30E-05
0.565442308,-6.88E-06,0.000331838,-2.17E-05
0.565961538,-6.71E-06,0.000377829,-2.00E-05
0.566480769,-4.53E-06,0.000256641,-1.02E-05
0.567,-1.68E-07,0.000270405,-6.38E-06
0.567519231,2.18E-06,5.20E-06,-1.07E-05
0.568038462,3.36E-07,-0.000546853,-1.70E-05
0.568557692,-6.55E-06,-0.000233814,-2.30E-05
0.569076923,-5.87E-06,3.61E-05,-2.94E-05
0.569596154,-6.55E-06,7.35E-05,-2.50E-05
0.570115385,-2.85E-06,0.000143008,-2.03E-05
0.570634615,-2.52E-06,0.000254459,-1.06E-05
0.571153846,-5.54E-06,0.000389242,-1.06E-05
0.571673077,-6.55E-06,0.000359365,-1.66E-05
0.572192308,-3.69E-06,8.22E-06,-2.50E-05
0.572711538,-2.85E-06,-0.000313207,-3.86E-05
0.573230769,-3.52E-06,-0.000286183,-4.92E-05
0.57375,-4.36E-06,-0.000159792,-4.65E-05
0.574269231,-5.71E-06,-8.27E-05,-4.28E-05
0.574788462,-1.17E-06,-4.26E-05,-1.90E-05
0.575307692,2.01E-06,-8.44E-05,-5.04E-07
0.575826923,-8.39E-07,-0.000260838,1.80E-05
0.576346154,-5.04E-07,-0.000237842,1.93E-05
0.576865385,3.36E-07,-9.57E-05,1.46E-05
0.577384615,-6.71E-07,-1.39E-05,1.36E-05
0.577903846,-3.02E-06,-3.41E-05,4.53E-06
0.578423077,-2.18E-06,-9.11E-05,-1.31E-05
0.578942308,-8.39E-07,-9.42E-05,-2.37E-05
0.579461538,1.85E-06,-0.000105913,-2.32E-05
0.579980769,3.36E-07,-0.000115312,-2.62E-05
0.5805,1.17E-06,-0.000106584,-2.53E-05
0.581019231,-1.01E-06,-9.55E-05,-2.45E-05
0.581538462,5.04E-07,-9.87E-05,-2.67E-05
0.582057692,2.35E-06,-7.49E-05,-2.65E-05
0.582576923,1.51E-06,-4.26E-05,-1.93E-05
0.583096154,2.35E-06,-3.04E-05,-1.41E-05
0.583615385,-2.01E-06,-1.38E-05,-1.56E-05
0.584134615,-1.17E-06,3.02E-06,-1.83E-05
0.584653846,-5.04E-07,-9.57E-06,-1.76E-05
0.585173077,-1.68E-06,-4.05E-05,-1.71E-05
0.585692308,1.85E-06,-1.88E-05,-1.02E-05
0.586211538,-1.68E-06,2.06E-05,-6.88E-06
0.586730769,-4.87E-06,3.54E-05,-1.68E-07
0.58725,-5.87E-06,2.00E-05,-3.86E-06
0.587769231,-4.53E-06,-7.89E-06,-2.00E-05
0.588288462,-5.20E-06,-5.54E-06,-2.64E-05
0.588807692,-6.21E-06,1.80E-05,-2.30E-05
0.589326923,-1.85E-06,5.66E-05,-1.96E-05
0.589846154,5.04E-07,7.60E-05,-1.63E-05
0.590365385,-3.69E-06,6.33E-05,-1.83E-05
0.590884615,-3.86E-06,3.56E-05,-1.51E-05
0.591403846,-4.87E-06,-3.61E-05,-1.43E-05
0.591923077,-4.20E-06,-5.61E-05,-1.02E-05
0.592442308,-3.52E-06,2.40E-05,-5.04E-07
0.592961538,-6.88E-06,7.30E-05,1.17E-06
0.593480769,-5.04E-06,3.74E-05,-1.68E-07
0.594,-4.20E-06,-8.68E-05,5.04E-07
0.594519231,-5.54E-06,-0.00023331,-1.51E-06
0.595038462,-3.86E-06,-0.000250767,-3.19E-06
0.595557692,-4.20E-06,-0.000136461,-7.39E-06
0.596076923,-2.52E-06,1.73E-05,-1.16E-05
0.596596154,1.17E-06,0.000123369,-1.12E-05
0.597115385,1.17E-06,0.00016936,-6.88E-06
0.597634615,-5.04E-07,5.98E-05,-1.38E-05
0.598153846,-2.35E-06,-0.000126055,-1.38E-05
0.598673077,-6.04E-06,-0.000152911,-1.12E-05
0.599192308,-7.89E-06,-1.16E-05,-1.01E-05
0.599711538,-9.57E-06,9.79E-05,-1.70E-05
0.600230769,-6.04E-06,0.000105745,-1.80E-05
0.60075,-6.88E-06,6.08E-05,-1.66E-05
0.601269231,-2.18E-06,4.82E-05,-1.75E-05
0.601788462,-4.87E-06,8.04E-05,-2.20E-05
0.602307692,-6.04E-06,0.000139818,-2.67E-05
0.602826923,-6.21E-06,0.000169024,-3.14E-05
0.603346154,-5.54E-06,0.000156939,-4.08E-05
0.603865385,-4.87E-06,6.29E-05,-3.37E-05
0.604384615,2.69E-06,-0.000161807,-2.33E-05
0.604903846,8.39E-07,-0.000226093,-2.25E-05
0.605423077,-5.04E-07,-0.000116991,-2.10E-05
0.605942308,-4.36E-06,-5.47E-05,-2.53E-05
0.606461538,-5.20E-06,-2.67E-05,-1.46E-05
0.606980769,-4.53E-06,9.32E-05,3.69E-06
0.6075,-5.54E-06,5.71E-05,2.18E-06
0.608019231,-3.69E-06,-0.000123705,-1.73E-05
0.608538462,-4.53E-06,-0.000193698,-1.80E-05
0.609057692,-7.72E-06,-0.000147204,-9.06E-06
0.609576923,-6.55E-06,-2.38E-05,-1.68E-07
0.610096154,-6.38E-06,5.12E-05,4.87E-06
0.610615385,-8.22E-06,0.000114641,1.33E-05
0.611134615,-9.57E-06,0.000162982,1.54E-05
0.611653846,-1.12E-05,0.000188663,1.38E-05
0.612173077,-8.56E-06,0.000186481,7.89E-06
0.612692308,-5.87E-06,0.000194369,4.53E-06
0.613211538,-9.57E-06,0.000158282,-2.18E-06
0.613730769,-6.55E-06,6.68E-05,-1.12E-05
0.61425,-6.55E-06,-2.06E-05,-2.67E-05
0.614769231,-5.54E-06,-4.93E-05,-3.51E-05
0.615288462,-1.16E-05,-0.000130755,-3.11E-05
0.615807692,-1.02E-05,-8.88E-05,-2.06E-05
0.616326923,-1.07E-05,-2.57E-05,-1.98E-05
0.616846154,-7.22E-06,8.56E-06,-2.23E-05
0.617365385,-9.90E-06,-1.43E-05,-3.17E-05
0.617884615,-1.21E-05,-0.000125887,-4.21E-05
0.618403846,-1.36E-05,-0.000232639,-4.62E-05
0.618923077,-1.09E-05,-0.000188327,-4.99E-05
0.619442308,-9.74E-06,-9.15E-05,-4.52E-05
0.619961538,-1.24E-05,7.28E-05,-3.58E-05
0.620480769,-1.02E-05,0.000234653,-2.65E-05
0.621,-1.02E-05,0.000252277,-1.73E-05
0.621519231,-1.16E-05,9.77E-05,-1.39E-05
0.622038462,-6.38E-06,-0.000140154,-1.14E-05
0.622557692,-6.21E-06,-0.000240696,-9.74E-06
0.623076923,-9.57E-06,-0.000210651,-8.90E-06
0.623596154,-8.22E-06,-4.06E-05,-1.17E-06
0.624115385,-6.55E-06,0.000156268,2.52E-06
0.624634615,-5.87E-06,0.000217533,-3.86E-06
0.625153846,-3.86E-06,0.000182788,-4.20E-06
0.625673077,-8.22E-06,-7.47E-05,-1.16E-05
0.626192308,-5.87E-06,-0.000208301,-1.93E-05
0.626711538,-7.89E-06,-0.000141833,-2.00E-05
0.627230769,-6.55E-06,-0.000117662,-6.38E-06
0.62775,-8.90E-06,-0.00016936,6.38E-06
0.628269231,-5.87E-06,-0.000290211,1.96E-05
0.628788462,-7.55E-06,-0.00028098,1.70E-05
0.629307692,-1.02E-05,-0.000245899,-6.88E-06
0.629826923,-1.09E-05,-0.000197391,-2.92E-05
0.630346154,-1.29E-05,-0.000216693,-3.11E-05
0.630865385,-1.43E-05,-0.000215351,-2.43E-05
0.631384615,-7.89E-06,-8.76E-05,-6.21E-06
0.631903846,-7.22E-06,9.23E-05,1.29E-05
0.632423077,-8.90E-06,0.000150729,1.53E-05
0.632942308,-7.55E-06,0.000105241,6.88E-06
0.633461538,-7.22E-06,5.72E-05,4.20E-06
0.633980769,-7.22E-06,2.33E-05,2.69E-06
0.6345,-5.04E-06,5.35E-05,4.53E-06
0.635019231,1.17E-06,0.000113802,-3.52E-06
0.635538462,1.68E-07,0.000130083,-9.90E-06
0.636057692,-2.18E-06,0.000145022,-1.36E-05
0.636576923,5.04E-07,-8.90E-06,-1.11E-05
0.637096154,-2.18E-06,-0.00018883,-1.76E-05
0.637615385,-5.04E-06,-0.000193866,-2.33E-05
0.638134615,-6.38E-06,-7.47E-05,-3.54E-05
0.638653846,-7.05E-06,2.97E-05,-4.45E-05
0.639173077,-8.56E-06,4.80E-05,-3.94E-05
0.639692308,-7.22E-06,0.000127062,-3.66E-05
0.640211538,-8.90E-06,0.000176242,-3.78E-05
0.640730769,-8.90E-06,9.62E-05,-2.95E-05
0.64125,-4.03E-06,1.19E-05,-2.65E-05
0.641769231,-1.68E-06,-1.51E-05,-2.28E-05
0.642288462,-2.18E-06,6.40E-05,-2.30E-05
0.642807692,-2.85E-06,0.000121691,-2.45E-05
0.643326923,-5.54E-06,0.000175906,-2.45E-05
0.643846154,-1.85E-06,9.85E-05,-1.85E-05
0.644365385,-4.20E-06,-8.56E-06,-1.36E-05
0.644884615,-2.35E-06,-0.000215015,-1.12E-05
0.645403846,-3.52E-06,-0.00025362,-1.53E-05
0.645923077,-3.19E-06,-3.51E-05,-1.76E-05
0.646442308,-2.85E-06,-3.71E-05,-2.77E-05
0.646961538,-4.20E-06,-0.000105074,-3.59E-05
0.647480769,-5.04E-06,-0.000111116,-3.51E-05
0.648,-4.20E-06,-0.000117159,-3.29E-05
0.648519231,-1.85E-06,-9.55E-05,-3.12E-05
0.649038462,-2.35E-06,-0.000100542,-2.95E-05
0.649557692,1.68E-07,-7.45E-05,-1.90E-05
0.650076923,-3.86E-06,-7.25E-05,-1.68E-06
0.650596154,-4.53E-06,-0.000185473,6.55E-06
0.651115385,-1.68E-06,-0.000185473,9.23E-06
0.651634615,-8.39E-07,-5.87E-05,6.88E-06
0.652153846,-2.01E-06,0.000201083,7.89E-06
0.652673077,-8.22E-06,0.000193027,1.34E-06
0.653192308,-4.03E-06,-0.000112291,-4.36E-06
0.653711538,-1.51E-06,-0.000161303,-1.29E-05
0.654230769,-1.85E-06,-9.16E-05,-1.80E-05
0.65475,-6.04E-06,-7.94E-05,-1.63E-05
0.655269231,-3.36E-06,-0.000114305,-1.02E-05
0.655788462,-6.21E-06,-7.99E-05,-1.49E-05
0.656307692,-7.89E-06,3.00E-05,-1.93E-05
0.656826923,-9.74E-06,0.000205615,-1.06E-05
0.657346154,-7.22E-06,0.000379507,1.41E-05
0.657865385,-4.87E-06,0.000344259,2.67E-05
0.658384615,-6.04E-06,0.000151568,3.36E-05
0.658903846,-6.21E-06,2.35E-05,1.80E-05
0.659423077,-3.52E-06,-9.87E-05,1.17E-06
0.659942308,-3.69E-06,-0.000104738,-9.74E-06
0.660461538,-1.51E-06,6.56E-05,4.53E-06
0.660980769,3.36E-07,0.000423819,3.14E-05
0.6615,1.51E-06,0.000615503,4.01E-05
0.662019231,-4.53E-06,-7.75E-05,3.27E-05
0.662538462,-9.06E-06,-0.000442283,1.46E-05
0.663057692,-8.56E-06,-0.000112963,-1.09E-05
0.663576923,-8.22E-06,-1.28E-05,-3.44E-05
0.664096154,-3.02E-06,7.74E-05,-4.48E-05
0.664615385,-3.19E-06,7.97E-05,-4.58E-05
0.665134615,6.71E-07,3.17E-05,-3.64E-05
0.665653846,2.18E-06,-3.71E-05,-3.41E-05
0.666173077,-1.17E-06,-9.21E-05,-4.21E-05
0.666692308,-3.19E-06,-0.000198566,-4.52E-05
0.667211538,-2.85E-06,-0.000297597,-4.38E-05
0.667730769,-2.85E-06,-0.000270069,-4.36E-05
0.66825,-2.52E-06,-0.000152575,-4.31E-05
0.668769231,-3.36E-06,-8.41E-05,-3.34E-05
0.669288462,-5.20E-06,-6.26E-05,-3.44E-05
0.669807692,-8.22E-06,-6.97E-05,-3.47E-05
0.670326923,-6.55E-06,-5.99E-05,-3.14E-05
0.670846154,-6.88E-06,-4.99E-05,-2.89E-05
0.671365385,-4.87E-06,-3.42E-05,-2.85E-05
0.671884615,-4.20E-06,-1.80E-05,-2.57E-05
0.672403846,-1.34E-06,-6.43E-05,-2.10E-05
0.672923077,-2.18E-06,-0.000113298,-2.37E-05
0.673442308,-1.68E-07,-0.000101884,-2.30E-05
0.673961538,-2.52E-06,-0.000129412,-1.95E-05
0.674480769,-1.68E-07,-8.48E-05,-2.17E-05
0.675,-2.35E-06,-4.60E-05,-2.20E-05
0.675519231,2.18E-06,-2.84E-05,-1.83E-05
0.676038462,8.39E-07,-1.78E-05,-1.31E-05
0.676557692,4.20E-06,2.35E-06,-7.55E-06
0.677076923,3.52E-06,4.35E-05,-1.04E-05
0.677596154,-8.39E-07,8.44E-05,-9.23E-06
0.678115385,5.04E-07,0.00011632,-5.54E-06
0.678634615,-3.69E-06,0.000136797,-9.23E-06
0.679153846,-5.54E-06,0.000130419,-4.70E-06
0.679673077,-5.87E-06,0.000123033,2.52E-06
0.680192308,-5.71E-06,0.000136126,5.20E-06
0.680711538,-1.11E-05,8.12E-05,7.05E-06
0.681230769,-1.02E-05,-6.71E-06,6.88E-06
0.68175,-1.02E-05,-1.63E-05,9.06E-06
0.682269231,-7.55E-06,-4.21E-05,9.23E-06
0.682788462,-4.20E-06,-0.000135119,1.01E-05
0.683307692,-8.39E-07,-0.000166674,6.55E-06
0.683826923,-3.19E-06,-3.51E-05,-1.68E-07
0.684346154,-3.36E-07,7.23E-05,-1.31E-05
0.684865385,0,0.000117662,-1.64E-05
0.685384615,-5.04E-07,9.01E-05,-1.49E-05
0.685903846,-3.19E-06,3.34E-05,-1.49E-05
0.686423077,-4.53E-06,5.20E-06,-1.39E-05
0.686942308,-7.22E-06,-8.58E-05,-2.10E-05
0.687461538,-8.90E-06,-0.000160128,-2.47E-05
0.687980769,-4.53E-06,-0.0002177,-3.12E-05
0.6885,-5.04E-06,-0.000216022,-4.01E-05
0.689019231,-6.21E-06,-0.000153582,-4.21E-05
0.689538462,-6.55E-06,-0.000107591,-4.67E-05
0.690057692,-5.54E-06,-0.000124712,-5.19E-05
0.690576923,5.04E-07,-8.71E-05,-4.45E-05
0.691096154,-1.68E-06,-4.78E-05,-3.96E-05
0.691615385,-8.39E-07,-6.56E-05,-3.74E-05
0.692134615,1.68E-07,-2.70E-05,-3.61E-05
0.692653846,0,-1.39E-05,-3.71E-05
0.693173077,-2.18E-06,-1.83E-05,-3.00E-05
0.693692308,-1.51E-06,-2.67E-05,-2.27E-05
0.694211538,-3.86E-06,-3.84E-05,-1.96E-05
0.694730769,-3.52E-06,-3.09E-05,-1.66E-05
0.69525,-4.87E-06,-1.43E-05,-1.41E-05
0.695769231,-6.21E-06,2.48E-05,-1.29E-05
0.696288462,-7.05E-06,5.25E-05,-1.46E-05
0.696807692,-3.52E-06,2.90E-05,-8.56E-06
0.697326923,-6.55E-06,5.04E-07,-7.72E-06
0.697846154,-5.54E-06,2.55E-05,-3.19E-06
0.698365385,-4.87E-06,9.85E-05,-3.36E-06
0.698884615,-2.85E-06,0.000190509,-2.85E-06
0.699403846,-8.22E-06,0.000168688,-5.04E-06
0.699923077,-3.52E-06,-2.48E-05,-8.39E-07
0.700442308,-2.85E-06,-0.000130419,8.73E-06
0.700961538,-1.17E-06,-9.45E-05,1.33E-05
0.701480769,-1.51E-06,-0.000122698,8.39E-06
0.702,1.85E-06,-7.67E-05,1.63E-05
0.702519231,-3.86E-06,4.70E-06,2.38E-05
0.703038462,-1.68E-07,7.55E-05,1.38E-05
0.703557692,4.20E-06,9.57E-05,1.02E-05
0.704076923,-2.01E-06,9.20E-05,1.85E-06
0.704596154,-1.68E-07,0.000103227,-4.20E-06
0.705115385,-1.17E-06,0.000153582,-8.22E-06
0.705634615,-2.85E-06,0.000184802,-1.56E-05
0.706153846,-5.87E-06,0.000193866,-2.47E-05
0.706673077,-4.87E-06,0.000129244,-3.56E-05
0.707192308,-5.54E-06,-6.16E-05,-3.44E-05
0.707711538,-6.88E-06,-0.000108934,-3.37E-05
0.708230769,-4.87E-06,-2.03E-05,-3.81E-05
0.70875,-7.55E-06,6.73E-05,-3.64E-05
0.709269231,-9.57E-06,0.00011397,-3.96E-05
0.709788462,-1.23E-05,6.16E-05,-4.40E-05
0.710307692,-1.36E-05,-5.72E-05,-3.61E-05
0.710826923,-9.57E-06,-9.87E-05,-2.94E-05
0.711346154,-8.22E-06,-9.28E-05,-1.93E-05
0.711865385,-7.89E-06,-0.000112963,-1.31E-05
0.712384615,-6.38E-06,-0.000107927,-2.17E-05
0.712903846,-5.20E-06,-7.91E-05,-2.20E-05
0.713423077,-6.38E-06,-8.01E-05,-1.90E-05
0.713942308,-1.06E-05,-2.53E-05,-2.77E-05
0.714461538,-1.09E-05,-5.32E-05,-3.32E-05
0.714980769,-1.02E-05,-0.000224582,-3.39E-05
0.7155,-1.01E-05,-0.000172381,-2.40E-05
0.716019231,-8.22E-06,5.51E-05,-7.39E-06
0.716538462,-5.87E-06,0.00018967,4.20E-06
0.717057692,-5.87E-06,0.000140658,-3.36E-06
0.717576923,-5.87E-06,-3.19E-06,-6.55E-06
0.718096154,5.04E-07,-0.000109941,-1.71E-05
0.718615385,-1.17E-06,-0.000206622,-1.96E-05
0.719134615,8.39E-07,-0.000324788,-1.33E-05
0.719653846,-1.68E-07,-0.000345266,-1.68E-07
0.720173077,-3.52E-06,-0.000224247,3.52E-06
0.720692308,-6.21E-06,-1.06E-05,-5.54E-06
0.721211538,-6.21E-06,0.000194537,-1.29E-05
0.721730769,-5.54E-06,0.000309682,-1.36E-05
0.72225,-7.55E-06,0.00013109,-1.28E-05
0.722769231,-6.88E-06,-8.01E-05,-2.52E-06
0.723288462,-7.89E-06,-3.00E-05,9.57E-06
0.723807692,-6.21E-06,6.11E-05,1.33E-05
0.724326923,-7.72E-06,-0.000105074,1.46E-05
0.724846154,-4.70E-06,-0.000207126,8.56E-06
0.725365385,-5.71E-06,-6.13E-05,8.56E-06
0.725884615,-7.39E-06,-2.37E-05,1.64E-05
0.726403846,-5.54E-06,1.73E-05,1.44E-05
0.726923077,-3.52E-06,5.32E-05,1.19E-05
0.727442308,-2.18E-06,0.000132097,1.02E-05
0.727961538,-1.01E-06,0.000218708,5.54E-06
0.728480769,-1.51E-06,0.000299947,5.04E-07
0.729,-5.87E-06,0.000180102,-1.59E-05
0.729519231,-6.04E-06,-7.60E-05,-3.47E-05
0.730038462,-3.69E-06,-0.000386053,-4.31E-05
0.730557692,-5.54E-06,-0.000433555,-4.97E-05
0.731076923,-7.39E-06,-0.000193866,-5.29E-05
0.731596154,-9.23E-06,-0.000126558,-5.79E-05
0.732115385,-9.57E-06,-0.00017406,-5.46E-05
0.732634615,-7.55E-06,-0.000173388,-3.37E-05
0.733153846,-8.39E-06,-0.00011162,-1.76E-05
0.733673077,-2.85E-06,-1.43E-05,-8.56E-06
0.734192308,-1.51E-06,-3.78E-05,-2.00E-05
0.734711538,-8.22E-06,-0.000101213,-4.18E-05
0.735230769,-1.09E-05,-7.74E-05,-4.62E-05
0.73575,-8.56E-06,-7.99E-05,-3.91E-05
0.736269231,-4.70E-06,-9.18E-05,-3.61E-05
0.736788462,-3.52E-06,-9.30E-05,-2.58E-05
0.737307692,-8.39E-07,-8.90E-06,-8.56E-06
0.737826923,-1.01E-06,3.78E-05,2.85E-06
0.738346154,-8.39E-07,3.47E-05,2.85E-06
0.738865385,-1.85E-06,3.86E-06,-2.18E-06
0.739384615,-4.36E-06,-2.00E-05,-9.06E-06
0.739903846,-3.19E-06,-3.94E-05,-1.59E-05
0.740423077,-2.52E-06,-3.34E-05,-1.70E-05
0.740942308,-6.55E-06,-1.71E-05,-1.26E-05
0.741461538,-8.39E-06,2.97E-05,-1.28E-05
0.741980769,-6.55E-06,0.000101549,-1.70E-05
0.7425,-7.55E-06,0.000140154,-2.27E-05
0.743019231,-3.36E-06,0.000154757,-2.74E-05
0.743538462,-1.51E-06,0.000222736,-3.29E-05
0.744057692,-1.85E-06,0.000238682,-3.11E-05
0.744576923,-4.20E-06,0.000158785,-2.35E-05
0.745096154,-5.87E-06,-0.000110277,-2.20E-05
0.745615385,-3.52E-06,-0.000269062,-2.06E-05
0.746134615,-2.85E-06,-0.000201251,-1.44E-05
0.746653846,-5.54E-06,-7.77E-05,-9.23E-06
0.747173077,-3.52E-06,2.52E-06,-1.23E-05
0.747692308,-2.85E-06,-2.85E-05,-1.76E-05
0.748211538,-2.18E-06,-6.55E-05,-2.58E-05
0.748730769,-1.34E-06,-4.88E-05,-2.70E-05
0.74925,-4.20E-06,2.18E-06,-2.48E-05
0.749769231,-2.35E-06,4.21E-05,-1.63E-05
0.750288462,-1.51E-06,8.58E-05,-1.64E-05
0.750807692,-1.17E-06,6.63E-05,-1.56E-05
0.751326923,-3.69E-06,1.19E-05,-1.86E-05
0.751846154,-4.20E-06,-3.88E-05,-1.90E-05
0.752365385,-3.52E-06,-5.32E-05,-2.27E-05
0.752884615,-7.22E-06,-2.74E-05,-2.52E-05
0.753403846,-5.54E-06,1.54E-05,-2.03E-05
0.753923077,-6.21E-06,2.50E-05,-1.49E-05
0.754442308,-3.86E-06,2.06E-05,-1.36E-05
0.754961538,-3.36E-06,1.06E-05,-1.04E-05
0.755480769,-4.53E-06,1.83E-05,-8.56E-06
0.756,-2.01E-06,4.95E-05,-5.87E-06
0.756519231,-2.85E-06,8.04E-05,-1.06E-05
0.757038462,-1.17E-06,6.24E-05,-2.30E-05
0.757557692,-5.87E-06,1.43E-05,-3.11E-05
0.758076923,-6.55E-06,-4.68E-05,-2.33E-05
0.758596154,-4.87E-06,-9.70E-05,-1.56E-05
0.759115385,-2.01E-06,-0.000147539,-7.05E-06
0.759634615,1.51E-06,-0.000150729,4.70E-06
0.760153846,1.17E-06,-8.24E-05,1.19E-05
0.760673077,-8.39E-07,-9.23E-06,7.89E-06
0.761192308,-3.19E-06,2.87E-05,2.85E-06
0.761711538,-6.71E-07,2.53E-05,3.86E-06
0.762230769,-3.52E-06,1.66E-05,2.35E-06
0.76275,-1.85E-06,3.73E-05,-8.39E-07
0.763269231,-4.53E-06,4.68E-05,-5.54E-06
0.763788462,-1.51E-06,7.07E-05,-7.72E-06
0.764307692,-6.71E-07,0.000107759,-1.46E-05
0.764826923,1.17E-06,0.000130587,-1.33E-05
0.765346154,3.19E-06,0.000119005,-1.53E-05
0.765865385,5.71E-06,6.13E-05,-1.78E-05
0.766384615,2.52E-06,-1.26E-05,-2.05E-05
0.766903846,1.17E-06,-7.12E-05,-3.42E-05
0.767423077,-1.51E-06,-4.31E-05,-4.10E-05
0.767942308,-8.22E-06,-1.26E-05,-3.79E-05
0.768461538,-1.06E-05,-5.02E-05,-3.44E-05
0.768980769,-7.55E-06,-0.00010692,-3.68E-05
0.7695,-7.55E-06,-0.000153246,-3.31E-05
0.770019231,-7.05E-06,-0.000141161,-2.62E-05
0.770538462,-9.57E-06,-0.000101717,-2.74E-05
0.771057692,-8.22E-06,-7.65E-05,-2.40E-05
0.771576923,-3.36E-07,-3.04E-05,-2.47E-05
0.772096154,-8.39E-07,-1.02E-05,-2.57E-05
0.772615385,-4.20E-06,-2.17E-05,-2.64E-05
0.773134615,-6.88E-06,-3.73E-05,-2.22E-05
0.773653846,-1.06E-05,-4.53E-05,-1.83E-05
0.774173077,-6.38E-06,-3.78E-05,-2.03E-05
0.774692308,-7.55E-06,-2.33E-05,-1.66E-05
0.775211538,-8.22E-06,-8.39E-07,-8.22E-06
0.775730769,-7.55E-06,3.52E-06,-4.70E-06
0.77625,-7.89E-06,-3.78E-05,-7.22E-06
0.776769231,-5.04E-06,-7.84E-05,-1.51E-06
0.777288462,-5.37E-06,-7.54E-05,3.52E-06
0.777807692,-3.19E-06,-5.07E-05,7.55E-06
0.778326923,-5.54E-06,5.27E-05,6.21E-06
0.778846154,-7.89E-06,8.71E-05,1.51E-06
0.779365385,-1.09E-05,6.97E-05,-3.86E-06
0.779884615,-9.23E-06,-1.12E-05,-1.86E-05
0.780403846,-8.90E-06,-0.000114473,-1.73E-05
0.780923077,-4.87E-06,-0.000110277,-5.71E-06
0.781442308,-6.38E-06,-2.74E-05,1.17E-06
0.781961538,-8.56E-06,-0.000196887,-7.05E-06
0.782480769,-5.87E-06,-0.000286854,-1.90E-05
0.783,-4.70E-06,-0.000178759,-2.75E-05
0.783519231,-1.51E-06,8.39E-07,-3.14E-05
0.784038462,1.51E-06,0.000158618,-2.10E-05
0.784557692,-3.36E-07,0.0003122,-1.68E-07
0.785076923,1.17E-06,0.000499016,8.22E-06
0.785596154,3.52E-06,0.000619532,5.37E-06
0.786115385,2.01E-06,0.000556756,-1.19E-05
0.786634615,2.69E-06,0.000389578,-2.32E-05
0.787153846,-2.18E-06,0.000178424,-2.40E-05
0.787673077,-4.36E-06,-0.000162646,-2.99E-05
0.788192308,-2.52E-06,-0.000360876,-3.24E-05
0.788711538,-2.85E-06,-0.000361044,-2.74E-05
0.789230769,-6.21E-06,-0.000256138,-2.43E-05
0.78975,-4.53E-06,-0.000226596,-2.25E-05
0.790269231,-4.36E-06,-0.000172717,-1.64E-05
0.790788462,-3.86E-06,-3.84E-05,-1.12E-05
0.791307692,-1.51E-06,1.76E-05,-7.55E-06
0.791826923,-1.17E-06,-4.80E-05,-9.90E-06
0.792346154,-8.39E-07,-0.000165499,-1.83E-05
0.792865385,-2.35E-06,-0.000170367,-2.87E-05
0.793384615,-3.86E-06,-0.000112291,-3.99E-05
0.793903846,-1.51E-06,-0.000137804,-3.04E-05
0.794423077,-1.51E-06,-0.000173388,-1.43E-05
0.794942308,-8.39E-07,-0.00010692,-1.68E-06
0.795461538,-1.01E-06,6.43E-05,4.70E-06
0.795980769,-6.71E-07,0.0001608,3.52E-06
0.7965,-1.17E-06,-3.52E-05,6.04E-06
0.797019231,-3.36E-06,-0.000235492,-1.51E-06
0.797538462,-2.85E-06,-0.000255467,-3.52E-06
0.798057692,-5.20E-06,-0.00012723,-3.36E-07
0.798576923,-4.53E-06,2.64E-05,4.03E-06
0.799096154,-5.87E-06,9.92E-05,2.18E-06
0.799615385,-4.87E-06,0.000122698,-9.06E-06
0.800134615,-5.20E-06,0.000170367,-1.12E-05
0.800653846,-7.55E-06,0.000164157,-7.39E-06
0.801173077,-6.88E-06,5.56E-05,-5.54E-06
0.801692308,-1.01E-05,-1.19E-05,-1.63E-05
0.802211538,-9.57E-06,4.25E-05,-2.79E-05
0.802730769,-5.71E-06,3.34E-05,-4.46E-05
0.80325,-9.40E-06,-3.36E-06,-5.29E-05
0.803769231,-8.22E-06,-7.55E-05,-5.35E-05
0.804288462,-7.72E-06,-0.000212329,-5.07E-05
0.804807692,-6.55E-06,-0.000286183,-4.38E-05
0.805326923,-4.87E-06,-0.000232135,-3.51E-05
0.805846154,-1.68E-06,-0.000181949,-2.89E-05
0.806365385,-3.36E-06,-0.000180102,-3.24E-05
0.806884615,-5.54E-06,-0.000164996,-3.64E-05
0.807403846,-9.57E-06,-8.06E-05,-3.91E-05
0.807923077,-1.12E-05,4.15E-05,-3.46E-05
0.808442308,-1.31E-05,0.000118334,-2.47E-05
0.808961538,-5.54E-06,0.000110613,-1.59E-05
0.809480769,-3.69E-06,0.000121355,-6.55E-06
0.81,-5.71E-06,6.24E-05,1.17E-06
0.810519231,-2.85E-06,6.88E-06,6.55E-06
0.811038462,-1.68E-06,-4.21E-05,1.11E-05
0.811557692,-5.04E-06,-8.74E-05,9.90E-06
0.812076923,-2.85E-06,-0.000112627,8.22E-06
0.812596154,-2.52E-06,-1.73E-05,2.85E-06
0.813115385,-4.20E-06,6.78E-05,-3.52E-06
0.813634615,-5.54E-06,6.09E-05,-1.51E-06
0.814153846,-3.86E-06,0.00019353,-5.37E-06
0.814673077,-7.72E-06,0.000280476,-1.12E-05
0.815192308,-1.26E-05,0.000136797,-1.23E-05
0.815711538,-1.39E-05,-1.91E-05,-1.80E-05
0.816230769,-1.64E-05,1.36E-05,-3.05E-05
0.81675,-1.23E-05,0.000132433,-3.64E-05
0.817269231,-1.11E-05,0.000102892,-3.84E-05
0.817788462,-1.12E-05,-0.00023415,-3.96E-05
0.818307692,-1.19E-05,-0.000258152,-3.26E-05
0.818826923,-1.23E-05,-0.000132097,-2.48E-05
0.819346154,-9.74E-06,-0.00012874,-1.90E-05
0.819865385,-6.21E-06,-0.000132433,-2.03E-05
0.820384615,-5.87E-06,-0.000101213,-1.56E-05
0.820903846,1.17E-06,-8.21E-05,-1.14E-05
0.821423077,1.68E-06,-6.11E-05,-1.16E-05
0.821942308,3.36E-07,-2.17E-05,-1.29E-05
0.822461538,5.04E-07,2.20E-05,-1.29E-05
0.822980769,5.04E-07,5.67E-05,-8.22E-06
0.8235,-1.85E-06,6.88E-05,-5.04E-07
0.824019231,-3.52E-06,4.08E-05,1.12E-05
0.824538462,-2.85E-06,1.46E-05,1.53E-05
0.825057692,-1.51E-06,1.85E-05,1.53E-05
0.825576923,-5.04E-06,-3.11E-05,-1.17E-06
0.826096154,-1.06E-05,-7.89E-05,-1.90E-05
0.826615385,-7.55E-06,-0.000155932,-3.16E-05
0.827134615,-9.90E-06,-0.000194873,-2.70E-05
0.827653846,-3.52E-06,-0.000168185,-2.03E-05
0.828173077,-3.02E-06,-0.000123369,-9.23E-06
0.828692308,-1.51E-06,-7.00E-05,-2.35E-06
0.829211538,-6.21E-06,-4.41E-05,-4.03E-06
0.829730769,-4.87E-06,-6.43E-05,-6.04E-06
0.83025,-2.85E-06,-5.09E-05,-4.20E-06
0.830769231,0,4.20E-06,-1.26E-05
0.831288462,1.01E-06,1.06E-05,-1.91E-05
0.831807692,1.68E-07,3.52E-06,-2.23E-05
0.832326923,8.39E-07,2.03E-05,-2.47E-05
0.832846154,-4.20E-06,4.92E-05,-2.37E-05
0.833365385,1.68E-07,6.53E-05,-2.57E-05
0.833884615,4.03E-06,5.72E-05,-2.37E-05
0.834403846,2.18E-06,6.43E-05,-1.80E-05
0.834923077,2.35E-06,6.53E-05,-1.53E-05
0.835442308,6.55E-06,7.17E-05,-1.38E-05
0.835961538,3.02E-06,0.000110948,-8.22E-06
0.836480769,1.68E-06,0.0001467,-8.56E-06
0.837,-3.36E-07,0.000149889,-4.53E-06
0.837519231,-5.04E-07,9.25E-05,-8.39E-07
0.838038462,1.51E-06,4.26E-05,-1.29E-05
0.838557692,-2.85E-06,-2.23E-05,-2.08E-05
0.839076923,-1.51E-06,-0.000207126,-2.20E-05
0.839596154,-3.52E-06,-0.00038471,-2.74E-05
0.840115385,-2.01E-06,-0.000192859,-2.79E-05
0.840634615,-4.03E-06,4.52E-05,-2.20E-05
0.841153846,-6.88E-06,0.000150729,-1.80E-05
0.841673077,-5.20E-06,7.67E-05,-1.70E-05
0.842192308,-4.20E-06,1.96E-05,-1.66E-05
0.842711538,-8.22E-06,7.54E-05,-8.90E-06
0.843230769,-7.89E-06,-3.26E-05,-7.89E-06
0.84375,-8.22E-06,-8.01E-05,-1.09E-05
0.844269231,-7.22E-06,-3.94E-05,-1.26E-05
0.844788462,-7.55E-06,-2.08E-05,-1.19E-05
0.845307692,-7.89E-06,-1.73E-05,-9.57E-06
0.845826923,-7.05E-06,4.53E-06,-1.12E-05
0.846346154,-7.89E-06,3.59E-05,-9.90E-06
0.846865385,-7.05E-06,4.05E-05,-7.89E-06
0.847384615,-5.54E-06,7.05E-06,-6.21E-06
0.847903846,-8.39E-06,-1.70E-05,-3.86E-06
0.848423077,-6.88E-06,-3.17E-05,-1.85E-06
0.848942308,-1.09E-05,-4.85E-05,-8.73E-06
0.849461538,-9.57E-06,-3.93E-05,-9.74E-06
0.849980769,-8.22E-06,-5.87E-06,-5.54E-06
0.8505,-3.69E-06,3.94E-05,4.20E-06
0.851019231,-3.69E-06,5.76E-05,1.64E-05
0.851538462,-2.85E-06,0.000162142,2.77E-05
0.852057692,-4.36E-06,0.000327977,3.11E-05
0.852576923,-4.53E-06,0.000356847,2.37E-05
0.853096154,-7.05E-06,0.000322774,3.86E-06
0.853615385,-8.22E-06,0.000271077,-7.55E-06
0.854134615,-1.06E-05,0.000180774,-1.39E-05
0.854653846,-1.12E-05,7.07E-05,-1.59E-05
0.855173077,-9.74E-06,8.56E-06,-1.63E-05
0.855692308,-7.72E-06,-0.000100542,-1.70E-05
0.856211538,-8.22E-06,-0.000215015,-2.25E-05
0.856730769,-6.38E-06,-0.000184466,-1.76E-05
0.85725,-7.22E-06,-0.000149889,-1.06E-05
0.857769231,-5.20E-06,-0.000125887,-6.04E-06
0.858288462,-6.88E-06,-0.000154589,-1.56E-05
0.858807692,-7.89E-06,-0.000209644,-2.64E-05
0.859326923,-1.23E-05,-8.24E-05,-2.33E-05
0.859846154,-9.23E-06,2.50E-05,-2.06E-05
0.860365385,-7.55E-06,3.73E-05,-2.30E-05
0.860884615,-7.55E-06,-2.85E-06,-2.55E-05
0.861403846,-8.56E-06,7.22E-06,-3.12E-05
0.861923077,-8.56E-06,-5.89E-05,-3.91E-05
0.862442308,-9.57E-06,-0.000228443,-4.58E-05
0.862961538,-1.02E-05,-0.000301625,-4.63E-05
0.863480769,-7.89E-06,-0.000251438,-4.83E-05
0.864,-6.55E-06,-9.01E-05,-4.03E-05
0.864519231,-6.21E-06,-0.000110277,-3.21E-05
0.865038462,-3.52E-06,-0.000225757,-2.74E-05
0.865557692,-3.69E-06,-0.000202594,-2.57E-05
0.866076923,-4.87E-06,-0.00016936,-2.28E-05
0.866596154,-2.69E-06,-0.000114977,-2.27E-05
0.867115385,-1.68E-06,-3.46E-05,-2.84E-05
0.867634615,-3.52E-06,2.15E-05,-3.07E-05
0.868153846,-2.52E-06,6.23E-05,-3.37E-05
0.868673077,-2.85E-06,-2.67E-05,-2.87E-05
0.869192308,-1.51E-06,-0.000132433,-2.30E-05
0.869711538,-2.18E-06,-6.24E-05,-2.10E-05
0.870230769,-2.01E-06,0.000225254,-1.49E-05
0.87075,-8.39E-07,0.000557092,-4.36E-06
0.871269231,-2.18E-06,0.000286183,-3.19E-06
0.871788462,-5.04E-07,-0.000477531,5.20E-06
0.872307692,-3.36E-06,-0.000252277,3.86E-06
0.872826923,-5.87E-06,-8.41E-05,-2.69E-06
0.873346154,-1.34E-06,-9.23E-06,-7.22E-06
0.873865385,-3.02E-06,4.92E-05,-1.76E-05
0.874384615,-3.19E-06,7.91E-05,-1.16E-05
0.874903846,-5.54E-06,0.000141161,-3.36E-06
0.875423077,-2.52E-06,0.000163653,1.68E-07
0.875942308,-6.21E-06,0.000135119,-1.49E-05
0.876461538,-4.20E-06,8.54E-05,-2.55E-05
0.876980769,-2.01E-06,-0.000145693,-1.56E-05
0.8775,0,-0.000403006,1.36E-05
0.878019231,2.52E-06,-0.000325628,3.27E-05
0.878538462,-3.19E-06,1.31E-05,2.33E-05
0.879057692,-7.55E-06,0.000234821,1.16E-05
0.879576923,-4.03E-06,-7.60E-05,-1.17E-06
0.880096154,-8.39E-06,-6.66E-05,-1.07E-05
0.880615385,-7.05E-06,0.00011632,-6.21E-06
0.881134615,-6.21E-06,0.000167681,-2.69E-06
0.881653846,-3.19E-06,0.00013579,-8.22E-06
0.882173077,-3.69E-06,-4.08E-05,-1.76E-05
0.882692308,-4.20E-06,-0.000172885,-2.58E-05
0.883211538,-1.17E-06,-0.000212497,-3.68E-05
0.883730769,3.36E-07,-0.000285176,-4.18E-05
0.88425,-1.85E-06,-0.000199237,-4.58E-05
0.884769231,-2.69E-06,-8.51E-05,-4.11E-05
0.885288462,-1.01E-06,-3.39E-05,-3.86E-05
0.885807692,-5.54E-06,-4.11E-05,-4.20E-05
0.886326923,-5.20E-06,-5.79E-05,-4.67E-05
0.886846154,-6.21E-06,-9.52E-05,-4.63E-05
0.887365385,-6.71E-06,-0.000120516,-4.60E-05
0.887884615,-9.23E-06,-0.000123033,-4.25E-05
0.888403846,-7.55E-06,-9.75E-05,-3.61E-05
0.888923077,-6.38E-06,-8.26E-05,-3.26E-05
0.889442308,-8.56E-06,-7.94E-05,-3.19E-05
0.889961538,-1.51E-06,-6.56E-05,-3.54E-05
0.890480769,-2.35E-06,-6.13E-05,-3.27E-05
0.891,-2.35E-06,-6.40E-05,-3.58E-05
0.891519231,-6.71E-07,-5.19E-05,-3.17E-05
0.892038462,6.71E-07,-1.56E-05,-2.43E-05
0.892557692,-2.35E-06,7.22E-06,-1.86E-05
0.893076923,-3.52E-06,7.55E-06,-1.53E-05
0.893596154,6.71E-07,4.75E-05,-1.23E-05
0.894115385,-1.68E-06,-1.71E-05,-1.41E-05
0.894634615,-4.87E-06,-8.22E-05,-1.53E-05
0.895153846,-6.88E-06,-3.44E-05,-1.49E-05
0.895673077,-5.54E-06,1.68E-07,-1.66E-05
0.896192308,-5.87E-06,4.92E-05,-1.07E-05
0.896711538,-8.22E-06,2.75E-05,-3.69E-06
0.897230769,-4.87E-06,-9.53E-05,4.36E-06
0.89775,-3.69E-06,-2.52E-05,1.04E-05
0.898269231,-2.52E-06,9.50E-05,1.36E-05
0.898788462,-5.04E-07,0.000144854,2.37E-05
0.899307692,-3.52E-06,0.000154253,3.07E-05
0.899826923,-3.36E-06,0.000159457,3.07E-05
0.900346154,-5.87E-06,0.000182956,2.77E-05
0.900865385,-3.86E-06,0.000176074,1.46E-05
0.901384615,-5.04E-07,6.03E-05,1.34E-06
0.901903846,5.04E-07,-1.56E-05,-8.90E-06
0.902423077,1.17E-06,-5.54E-06,-2.08E-05
0.902942308,3.19E-06,3.17E-05,-2.94E-05
0.903461538,-2.35E-06,4.97E-05,-3.59E-05
0.903980769,-4.36E-06,2.75E-05,-3.51E-05
0.9045,-3.86E-06,2.58E-05,-3.81E-05
0.905019231,-5.20E-06,3.66E-05,-3.98E-05
0.905538462,-6.55E-06,3.69E-06,-4.11E-05
0.906057692,-7.22E-06,-4.16E-05,-3.84E-05
0.906576923,-9.57E-06,-6.66E-05,-4.11E-05
0.907096154,-1.16E-05,-7.08E-05,-4.21E-05
0.907615385,-8.90E-06,-6.51E-05,-4.11E-05
0.908134615,-8.22E-06,-0.000102556,-3.34E-05
0.908653846,-7.22E-06,-0.000177417,-2.67E-05
0.909173077,-1.85E-06,-0.000142,-2.17E-05
0.909692308,-6.88E-06,-7.30E-05,-1.46E-05
0.910211538,-7.05E-06,-1.41E-05,-1.09E-05
0.910730769,-1.02E-05,-1.76E-05,-1.43E-05
0.91125,-8.22E-06,-5.19E-05,-1.26E-05
0.911769231,-8.56E-06,-2.50E-05,-8.56E-06
0.912288462,-1.04E-05,-1.76E-05,-1.02E-05
0.912807692,-9.57E-06,-4.87E-06,-1.23E-05
0.913326923,-9.06E-06,2.85E-06,-1.43E-05
0.913846154,-1.12E-05,-8.90E-06,-1.26E-05
0.914365385,-1.36E-05,-1.83E-05,-1.53E-05
0.914884615,-1.38E-05,-2.43E-05,-2.20E-05
0.915403846,-1.09E-05,-6.60E-05,-1.41E-05
0.915923077,-9.06E-06,-6.63E-05,-4.36E-06
0.916442308,-6.21E-06,1.68E-06,-3.36E-06
0.916961538,-6.55E-06,6.73E-05,-2.18E-06
0.917480769,-8.90E-06,0.000105913,-1.68E-07
0.918,-3.02E-06,0.000123873,-1.09E-05
0.918519231,-9.74E-06,6.88E-05,-1.06E-05
0.919038462,-6.38E-06,-1.51E-06,-7.89E-06
0.919557692,-3.19E-06,-3.22E-05,-6.88E-06
0.920076923,-4.87E-06,-0.000130922,-4.87E-06
0.920596154,-1.01E-06,-0.000221225,-2.18E-06
0.921115385,-1.51E-06,-0.000127062,4.53E-06
0.921634615,6.71E-07,-3.16E-05,1.23E-05
0.922153846,2.18E-06,7.94E-05,1.23E-05
0.922673077,2.69E-06,0.000152407,8.56E-06
0.923192308,8.39E-07,0.000154086,7.55E-06
0.923711538,6.71E-07,0.000178759,1.17E-06
0.924230769,-2.85E-06,5.76E-05,-1.36E-05
0.92475,-1.51E-06,-0.000178927,-2.57E-05
0.925269231,-6.88E-06,-0.000137133,-3.05E-05
0.925788462,-5.71E-06,1.70E-05,-3.02E-05
0.926307692,-8.39E-07,0.00012018,-2.75E-05
0.926826923,2.85E-06,0.000157946,-2.23E-05
0.927346154,5.87E-06,0.000153918,-1.96E-05
0.927865385,-3.86E-06,0.000135958,-2.27E-05
0.928384615,-8.39E-07,6.46E-05,-2.52E-05
0.928903846,-2.85E-06,3.05E-05,-2.75E-05
0.929423077,-6.71E-07,-7.22E-06,-3.21E-05
0.929942308,-2.85E-06,-3.16E-05,-3.34E-05
0.930461538,-4.70E-06,-2.38E-05,-3.32E-05
0.930980769,-1.51E-06,3.88E-05,-2.08E-05
0.9315,-3.36E-06,8.38E-05,-1.12E-05
0.932019231,-4.53E-06,0.00010692,-9.57E-06
0.932538462,-7.55E-06,0.000145525,-6.21E-06
0.933057692,-3.69E-06,0.000146532,-5.54E-06
0.933576923,-1.51E-06,-5.96E-05,-4.20E-06
0.934096154,5.04E-07,-0.000221897,2.52E-06
0.934615385,-2.85E-06,-0.000127733,1.68E-07
0.935134615,-4.20E-06,5.44E-05,3.52E-06
0.935653846,-5.54E-06,0.000232135,-2.18E-06
0.936173077,8.39E-07,0.00015761,-8.39E-07
0.936692308,-1.68E-07,1.78E-05,-6.21E-06
0.937211538,-3.52E-06,3.16E-05,-5.54E-06
0.937730769,-3.52E-06,1.91E-05,2.52E-06
0.93825,2.01E-06,-7.00E-05,5.20E-06
0.938769231,1.85E-06,-0.000149889,3.19E-06
0.939288462,8.39E-07,-0.000161471,7.39E-06
0.939807692,-2.85E-06,6.83E-05,9.06E-06
0.940326923,-2.85E-06,0.000231968,2.00E-05
0.940846154,-8.90E-06,0.000132433,1.93E-05
0.941365385,-1.59E-05,-2.30E-05,9.23E-06
0.941884615,-8.56E-06,-0.000141497,-3.36E-06
0.942403846,-4.87E-06,-0.000186145,-9.57E-06
0.942923077,-4.20E-06,-0.000133776,-1.12E-05
0.943442308,-1.85E-06,-0.000104234,-2.20E-05
0.943961538,-8.39E-07,-0.000164492,-2.03E-05
0.944480769,6.71E-07,-0.000292226,-2.57E-05
0.945,1.51E-06,-0.000342916,-3.39E-05
0.945519231,1.68E-07,-0.000311528,-4.15E-05
0.946038462,5.04E-07,-0.000266041,-4.95E-05
0.946557692,-4.20E-06,-0.000298939,-6.40E-05
0.947076923,-3.19E-06,-0.000399313,-5.94E-05
0.947596154,1.01E-06,-0.000359869,-3.69E-05
0.948115385,2.52E-06,-9.25E-05,-1.26E-05
0.948634615,4.53E-06,0.000147204,6.04E-06
0.949153846,6.55E-06,0.000212665,1.19E-05
0.949673077,7.89E-06,0.000115984,1.86E-05
0.950192308,6.88E-06,0.000129915,1.93E-05
0.950711538,7.22E-06,0.00015996,1.12E-05
0.951230769,5.87E-06,-0.000204608,-6.88E-06
0.95175,2.18E-06,-0.000322271,-2.50E-05
0.952269231,-6.21E-06,-4.06E-05,-4.11E-05
0.952788462,-8.56E-06,6.88E-06,-4.62E-05
0.953307692,-6.88E-06,-1.34E-06,-3.91E-05
0.953826923,-2.85E-06,-2.47E-05,-2.23E-05
0.954346154,-1.51E-06,8.73E-06,-1.88E-05
0.954865385,-4.20E-06,5.27E-05,-2.10E-05
0.955384615,-5.37E-06,4.60E-05,-1.80E-05
0.955903846,-8.56E-06,2.06E-05,-1.86E-05
0.956423077,-1.16E-05,-6.88E-06,-3.19E-05
0.956942308,-1.06E-05,-1.16E-05,-3.31E-05
0.957461538,-1.02E-05,-1.51E-06,-2.90E-05
0.957980769,-6.88E-06,5.69E-05,-2.80E-05
0.9585,-1.68E-06,0.000184298,-2.10E-05
0.959019231,-3.52E-06,0.000370108,-1.76E-05
0.959538462,-4.36E-06,0.00047602,-2.06E-05
0.960057692,-5.87E-06,1.12E-05,-2.57E-05
0.960576923,-5.71E-06,-0.000411734,-2.06E-05
0.961096154,-4.70E-06,-0.000230121,-1.44E-05
0.961615385,-3.19E-06,-0.000140826,-2.18E-06
0.962134615,-3.19E-06,6.14E-05,-5.04E-07
0.962653846,-7.22E-06,0.000147372,-1.68E-07
0.963173077,-5.54E-06,0.000107927,-1.51E-06
0.963692308,-8.22E-06,0.00017171,-2.85E-06
0.964211538,-1.16E-05,0.000182956,-3.36E-07
0.964730769,-9.57E-06,-0.000170703,-7.55E-06
0.96525,-7.55E-06,-0.000504555,-1.76E-05
0.965769231,-8.90E-06,-0.000401999,-2.80E-05
0.966288462,-1.09E-05,-0.000219883,-3.39E-05
0.966807692,-1.24E-05,-0.000110277,-3.36E-05
0.967326923,-1.09E-05,-6.48E-05,-2.72E-05
0.967846154,-1.12E-05,-2.43E-05,-1.90E-05
0.968365385,-1.23E-05,-2.30E-05,-1.16E-05
0.968884615,-1.34E-05,-2.70E-05,1.68E-06
0.969403846,-1.11E-05,-5.93E-05,3.86E-06
0.969923077,-6.55E-06,-9.72E-05,-2.52E-06
0.970442308,-6.21E-06,-9.65E-05,-1.31E-05
0.970961538,-2.85E-06,-4.05E-05,-2.60E-05
0.971480769,-6.88E-06,-1.11E-05,-4.58E-05
0.972,-3.69E-06,-8.04E-05,-5.76E-05
0.972519231,-4.87E-06,-0.000125719,-4.99E-05
0.973038462,-5.54E-06,-5.29E-05,-2.27E-05
0.973557692,-5.20E-06,2.11E-05,-2.85E-06
0.974076923,-3.02E-06,0.000124712,1.43E-05
0.974596154,-2.85E-06,0.000195041,2.33E-05
0.975115385,-2.18E-06,0.000125383,1.83E-05
0.975634615,-1.85E-06,5.27E-05,1.12E-05
0.976153846,-3.19E-06,2.18E-05,-5.04E-07
0.976673077,-7.55E-06,4.48E-05,-4.20E-06
0.977192308,-2.85E-06,9.92E-05,-5.04E-06
0.977711538,-2.18E-06,0.000142672,1.68E-07
0.978230769,-1.85E-06,0.000163989,-5.54E-06
0.97875,-3.52E-06,0.000152239,-8.22E-06
0.979269231,-5.87E-06,0.000117327,-3.86E-06
0.979788462,-6.71E-07,0.000126726,-4.70E-06
0.980307692,-6.71E-07,9.72E-05,-8.22E-06
0.980826923,-2.85E-06,-3.64E-05,-7.05E-06
0.981346154,-6.71E-07,-9.20E-05,-1.43E-05
0.981865385,-1.68E-07,-0.00019588,-2.40E-05
0.982384615,-1.68E-07,-0.000275105,-3.64E-05
0.982903846,1.34E-06,-0.000235492,-4.08E-05
0.983423077,1.68E-07,-0.000187488,-3.51E-05
0.983942308,-3.36E-07,-0.000122026,-2.43E-05
0.984461538,1.17E-06,1.33E-05,-1.49E-05
0.984980769,0,0.000115816,-1.23E-05
0.9855,-1.34E-06,0.000143175,-9.23E-06
0.986019231,-1.68E-07,0.000138643,-1.14E-05
0.986538462,-1.51E-06,6.55E-05,-1.59E-05
0.987057692,-8.39E-07,-2.84E-05,-2.64E-05
0.987576923,-1.17E-06,-9.01E-05,-2.92E-05
0.988096154,-1.85E-06,-9.15E-05,-2.47E-05
0.988615385,-6.71E-07,-2.35E-06,-2.57E-05
0.989134615,-2.01E-06,5.19E-05,-2.10E-05
0.989653846,-6.21E-06,3.74E-05,-1.66E-05
0.990173077,-6.55E-06,3.00E-05,-1.49E-05
0.990692308,-7.22E-06,4.95E-05,-1.33E-05
0.991211538,-4.20E-06,5.14E-05,-1.80E-05
0.991730769,-5.87E-06,-4.08E-05,-1.93E-05
0.99225,-5.87E-06,-0.000157778,-2.23E-05
0.992769231,-5.87E-06,-0.000158282,-1.91E-05
0.993288462,-8.56E-06,-9.89E-05,-2.27E-05
0.993807692,-6.55E-06,-5.49E-05,-3.31E-05
0.994326923,-5.87E-06,-3.68E-05,-3.68E-05
0.994846154,-4.87E-06,-4.63E-05,-3.11E-05
0.995365385,-5.20E-06,-4.90E-05,-3.09E-05
0.995884615,-3.69E-06,-2.38E-05,-3.21E-05
0.996403846,-5.54E-06,3.26E-05,-3.52E-05
0.996923077,-9.40E-06,6.29E-05,-3.49E-05
0.997442308,-1.09E-05,6.76E-05,-3.00E-05
0.997961538,-1.12E-05,1.53E-05,-2.45E-05
0.998480769,-1.11E-05,-2.10E-05,-2.01E-05
0.999,-8.56E-06,-6.36E-05,-2.00E-05
0.999519231,-6.04E-06,-4.85E-05,-1.76E-05
1.000038462,-7.89E-06,-9.57E-06,-1.90E-05
1.000557692,-9.06E-06,-4.73E-05,-1.76E-05
1.001076923,-1.11E-05,-9.84E-05,-1.38E-05
1.001596154,-8.73E-06,-0.000108431,-1.85E-05
1.002115385,-6.21E-06,-7.70E-05,-1.70E-05
1.002634615,-7.89E-06,-5.71E-05,-1.19E-05
1.003153846,-5.54E-06,-3.37E-05,-1.01E-05
1.003673077,-1.06E-05,6.71E-06,-8.22E-06
1.004192308,-9.40E-06,5.00E-05,-6.88E-06
1.004711538,-8.56E-06,6.80E-05,-1.28E-05
1.005230769,-7.89E-06,5.84E-05,-9.06E-06
1.00575,-8.73E-06,6.29E-05,-4.70E-06
1.006269231,-1.16E-05,6.29E-05,-5.04E-06
1.006788462,-1.34E-05,7.84E-05,-6.21E-06
1.007307692,-6.71E-06,9.58E-05,-5.20E-06
1.007826923,-7.55E-06,0.000110613,-5.04E-07
1.008346154,-7.89E-06,7.13E-05,-1.51E-06
1.008865385,-8.22E-06,7.28E-05,-3.86E-06
1.009384615,-7.55E-06,9.11E-05,-1.09E-05
1.009903846,-1.12E-05,4.82E-05,-1.16E-05
1.010423077,-1.26E-05,4.31E-05,-1.02E-05
1.010942308,-6.88E-06,0.000115984,-5.71E-06
1.011461538,-2.52E-06,0.000110613,3.36E-06
1.011980769,-4.20E-06,-3.91E-05,8.90E-06
1.0125,-3.86E-06,-0.000161639,9.57E-06
1.013019231,-7.72E-06,-0.000132433,3.86E-06
1.013538462,-1.16E-05,-5.10E-05,-1.09E-05
1.014057692,-1.53E-05,1.78E-05,-2.62E-05
1.014576923,-1.41E-05,0.000133776,-2.74E-05
1.015096154,-1.34E-05,3.04E-05,-2.43E-05
1.015615385,-1.17E-05,-0.000112627,-1.98E-05
1.016134615,-1.11E-05,-8.61E-05,-1.36E-05
1.016653846,-6.71E-06,-0.00010457,-1.29E-05
1.017173077,-4.36E-06,-0.000321096,-1.78E-05
1.017692308,-6.55E-06,-0.000366247,-2.75E-05
1.018211538,-1.16E-05,-0.000300618,-3.42E-05
1.018730769,-1.02E-05,-0.000181949,-3.32E-05
1.01925,-4.03E-06,-7.87E-05,-2.64E-05
1.019769231,-1.68E-07,-5.20E-06,-1.83E-05
1.020288462,-3.36E-06,2.53E-05,-1.53E-05
1.020807692,-1.51E-06,6.93E-05,-1.66E-05
1.021326923,-2.35E-06,6.09E-05,-2.17E-05
1.021846154,-5.37E-06,2.65E-05,-3.07E-05
1.022365385,-3.86E-06,-3.69E-06,-3.73E-05
1.022884615,-4.20E-06,-5.84E-05,-3.27E-05
1.023403846,-8.90E-06,-1.59E-05,-2.18E-05
1.023923077,-6.88E-06,6.87E-05,-1.85E-06
1.024442308,-3.86E-06,0.000159121,5.04E-06
1.024961538,-3.86E-06,0.000255467,1.06E-05
1.025480769,-3.19E-06,0.000252613,9.23E-06
1.026,-8.39E-07,0.000186481,5.04E-07
1.026519231,-2.85E-06,0.000113298,-9.74E-06
1.027038462,-3.36E-06,-0.000209644,-5.87E-06
1.027557692,-3.52E-06,-0.000273091,-5.54E-06
1.028076923,-6.88E-06,-0.000112627,-1.39E-05
1.028596154,-7.22E-06,-1.53E-05,-3.24E-05
1.029115385,-9.57E-06,-0.000133104,-3.81E-05
1.029634615,-1.12E-05,-0.000261006,-3.44E-05
1.030153846,-6.88E-06,-0.000177752,-2.67E-05
1.030673077,-6.88E-06,-6.88E-05,-2.17E-05
1.031192308,-5.20E-06,-2.18E-06,-9.57E-06
1.031711538,-3.86E-06,-6.73E-05,-2.85E-06
1.032230769,-1.51E-06,-0.000137636,-1.34E-06
1.03275,-2.18E-06,-8.53E-05,5.54E-06
1.033269231,-2.01E-06,-4.20E-06,3.86E-06
1.033788462,-4.70E-06,4.97E-05,-6.21E-06
1.034307692,-3.19E-06,0.000194873,-1.53E-05
1.034826923,-3.86E-06,0.000409384,-1.83E-05
1.035346154,-3.86E-06,0.000546685,-1.83E-05
1.035865385,-4.70E-06,-9.58E-05,-1.36E-05
1.036384615,-5.37E-06,-0.000378668,5.04E-07
1.036903846,-8.06E-06,5.89E-05,1.12E-05
1.037423077,-5.71E-06,8.53E-05,1.04E-05
1.037942308,-2.18E-06,-9.82E-05,2.52E-06
1.038461538,-4.87E-06,-0.000216358,-3.52E-06
1.038980769,-7.22E-06,-0.000125383,-1.23E-05
1.0395,-9.06E-06,-0.000202594,-1.09E-05
1.040019231,-7.55E-06,-0.000279805,1.68E-07
1.040538462,-4.87E-06,-0.000194705,5.20E-06
1.041057692,-6.21E-06,-5.39E-05,-2.18E-06
1.041576923,-7.89E-06,-4.35E-05,-7.55E-06
1.042096154,-3.19E-06,-7.20E-05,-5.54E-06
1.042615385,-2.85E-06,-1.66E-05,-6.55E-06
1.043134615,-1.01E-06,1.36E-05,-1.53E-05
1.043653846,2.18E-06,3.56E-05,-2.10E-05
1.044173077,2.52E-06,3.66E-05,-2.92E-05
1.044692308,3.36E-07,3.42E-05,-3.21E-05
1.045211538,3.02E-06,9.74E-06,-3.64E-05
1.045730769,-1.51E-06,-9.23E-06,-3.98E-05
1.04625,1.17E-06,-5.66E-05,-4.58E-05
1.046769231,-1.51E-06,-7.60E-05,-4.72E-05
1.047288462,-1.68E-07,-7.64E-05,-4.15E-05
1.047807692,1.68E-07,-2.23E-05,-2.89E-05
1.048326923,-1.51E-06,2.87E-05,-1.91E-05
1.048846154,3.36E-07,-1.80E-05,-1.23E-05
1.049365385,2.18E-06,-9.90E-06,-1.76E-05
1.049884615,-1.51E-06,5.72E-05,-1.63E-05
1.050403846,2.85E-06,4.72E-05,-1.53E-05
1.050923077,2.85E-06,3.02E-06,-1.06E-05
1.051442308,2.35E-06,-1.26E-05,-1.56E-05
1.051961538,-3.19E-06,-9.35E-05,-3.14E-05
1.052480769,-7.89E-06,-0.000187152,-4.48E-05
1.053,-9.57E-06,-0.00020528,-3.94E-05
1.053519231,-5.20E-06,-0.000194873,-2.57E-05
1.054038462,-3.02E-06,-0.000138643,-9.57E-06
1.054557692,-4.53E-06,-7.34E-05,-4.36E-06
1.055076923,-3.86E-06,2.65E-05,-6.04E-06
1.055596154,-2.52E-06,0.000184131,-1.19E-05
1.056115385,-5.54E-06,0.000213336,-2.17E-05
1.056634615,-9.90E-06,0.000106584,-2.57E-05
1.057153846,-6.88E-06,9.05E-05,-2.38E-05
1.057673077,-8.39E-07,5.14E-05,-2.37E-05
1.058192308,-2.52E-06,-9.57E-06,-1.81E-05
1.058711538,-5.54E-06,-4.21E-05,-1.39E-05
1.059230769,-4.87E-06,6.55E-06,-1.48E-05
1.05975,-4.53E-06,5.66E-05,-1.51E-05
1.060269231,-7.55E-06,5.46E-05,-2.17E-05
1.060788462,-4.20E-06,2.65E-05,-2.13E-05
1.061307692,-4.87E-06,-4.88E-05,-2.97E-05
1.061826923,-2.69E-06,-7.91E-05,-3.36E-05
1.062346154,-4.53E-06,-8.51E-05,-2.43E-05
1.062865385,-3.52E-06,-5.84E-05,-1.44E-05
1.063384615,-3.02E-06,-3.34E-05,-6.21E-06
1.063903846,-6.88E-06,9.57E-06,5.04E-07
1.064423077,-8.39E-07,2.06E-05,5.04E-06
1.064942308,-1.68E-06,-3.31E-05,-3.69E-06
1.065461538,-2.85E-06,-6.87E-05,-3.52E-06
1.065980769,1.68E-06,-5.19E-05,4.87E-06
1.0665,5.87E-06,-2.77E-05,9.40E-06
1.067019231,4.20E-06,-7.49E-05,5.20E-06
1.067538462,3.19E-06,-8.81E-05,4.53E-06
1.068057692,3.52E-06,-1.12E-05,7.22E-06
1.068576923,3.52E-06,2.52E-06,6.71E-06
1.069096154,1.85E-06,-5.05E-05,1.34E-06
1.069615385,-1.68E-07,-5.66E-05,-3.36E-06
1.070134615,1.01E-06,-1.95E-05,-1.17E-05
1.070653846,6.71E-07,5.42E-05,-2.58E-05
1.071173077,1.51E-06,0.000178759,-2.67E-05
1.071692308,-2.18E-06,0.000319417,-2.77E-05
1.072211538,-3.86E-06,0.000406867,-2.92E-05
1.072730769,-8.39E-07,0.000246235,-3.54E-05
1.07325,8.39E-07,-4.50E-05,-3.86E-05
1.073769231,-1.34E-06,-0.000114305,-3.81E-05
1.074288462,-2.85E-06,-4.26E-05,-2.87E-05
1.074807692,-7.55E-06,4.65E-05,-1.98E-05
1.075326923,-2.85E-06,5.25E-05,-2.47E-05
1.075846154,-3.02E-06,1.16E-05,-2.87E-05
1.076365385,-3.86E-06,-0.000130419,-3.32E-05
1.076884615,-3.36E-06,-0.000237507,-3.59E-05
1.077403846,-3.02E-06,-0.00018497,-3.56E-05
1.077923077,-5.54E-06,-0.000112291,-3.02E-05
1.078442308,-6.88E-06,-9.10E-05,-2.45E-05
1.078961538,-1.02E-05,-6.40E-05,-1.90E-05
1.079480769,-5.37E-06,-2.01E-06,-1.70E-05
1.08,-8.22E-06,4.75E-05,-1.78E-05
1.080519231,-5.20E-06,8.83E-05,-2.20E-05
1.081038462,-6.38E-06,0.000112459,-1.90E-05
1.081557692,-1.85E-06,0.000132265,-1.59E-05
1.082076923,-1.68E-07,0.000125719,-1.09E-05
1.082596154,3.86E-06,5.47E-05,-1.01E-05
1.083115385,-1.51E-06,6.03E-05,-1.24E-05
1.083634615,-5.04E-06,8.93E-05,-1.36E-05
1.084153846,-2.85E-06,5.35E-05,-1.39E-05
1.084673077,-3.19E-06,-8.90E-05,-1.33E-05
1.085192308,-1.34E-06,-0.000160967,-1.19E-05
1.085711538,-4.53E-06,-0.000176074,-1.83E-05
1.086230769,-3.52E-06,-0.000140658,-1.33E-05
1.08675,-1.85E-06,2.17E-05,-1.43E-05
1.087269231,-5.87E-06,0.000111116,-1.39E-05
1.087788462,-9.23E-06,9.30E-05,-1.41E-05
1.088307692,-1.16E-05,5.67E-05,-1.39E-05
1.088826923,-6.88E-06,-5.24E-05,-5.87E-06
1.089346154,-7.05E-06,-0.000202594,-1.17E-06
1.089865385,-1.51E-06,-0.00024741,-1.85E-06
1.090384615,-2.85E-06,-0.000200244,-2.18E-06
1.090903846,-8.39E-07,-0.000149218,-6.88E-06
1.091423077,-1.85E-06,-0.000187823,-2.52E-06
1.091942308,-8.39E-07,-0.000175235,-2.85E-06
1.092461538,-4.20E-06,-3.93E-05,-3.36E-06
1.092980769,-2.52E-06,6.55E-06,-6.88E-06
1.0935,-4.70E-06,-6.38E-05,-1.23E-05
1.094019231,-5.04E-06,-8.38E-05,-2.03E-05
1.094538462,-1.68E-06,-5.12E-05,-1.70E-05
1.095057692,3.69E-06,-4.46E-05,-1.23E-05
1.095576923,-1.85E-06,-9.23E-06,-1.12E-05
1.096096154,-2.85E-06,-6.04E-06,-1.36E-05
1.096615385,-6.21E-06,-6.76E-05,-1.39E-05
1.097134615,-4.87E-06,-2.23E-05,-1.38E-05
1.097653846,-1.51E-06,1.64E-05,-1.46E-05
1.098173077,-2.85E-06,1.83E-05,-1.44E-05
1.098692308,-5.04E-06,1.16E-05,-1.76E-05
1.099211538,-2.69E-06,9.23E-06,-2.00E-05
1.099730769,-3.52E-06,-7.72E-06,-1.80E-05
1.10025,-2.52E-06,-4.53E-06,-7.89E-06
1.100769231,-4.20E-06,-3.69E-06,-1.51E-06
1.101288462,-5.20E-06,-1.58E-05,4.36E-06
1.101807692,-3.52E-06,2.67E-05,-5.04E-07
1.102326923,-3.19E-06,6.88E-05,-1.16E-05
1.102846154,-5.20E-06,9.47E-05,-2.42E-05
1.103365385,-7.72E-06,0.000123033,-2.50E-05
1.103884615,-7.72E-06,8.85E-05,-8.22E-06
1.104403846,-4.87E-06,4.01E-05,3.36E-07
1.104923077,-3.19E-06,5.42E-05,9.23E-06
1.105442308,-1.68E-06,0.00011397,1.68E-05
1.105961538,-1.68E-06,4.48E-05,1.36E-05
1.106480769,-3.19E-06,-4.93E-05,1.96E-05
1.107,-2.35E-06,-9.08E-05,2.37E-05
1.107519231,-4.87E-06,-7.70E-05,2.38E-05
1.108038462,-5.54E-06,-0.000132601,2.79E-05
1.108557692,-1.09E-05,-0.000139147,1.46E-05
1.109076923,-1.09E-05,-0.000108934,-5.54E-06
1.109596154,-1.09E-05,-2.17E-05,-1.29E-05
1.110115385,-1.12E-05,0.000120012,-1.73E-05
1.110634615,-1.19E-05,0.000283497,-3.21E-05
1.111153846,-1.19E-05,0.000283162,-3.31E-05
1.111673077,-1.39E-05,0.000266712,-3.37E-05
1.112192308,-1.43E-05,0.000291218,-3.52E-05
1.112711538,-1.14E-05,0.000395117,-3.88E-05
1.113230769,-1.12E-05,0.000337881,-4.52E-05
1.11375,-9.23E-06,2.92E-05,-5.05E-05
1.114269231,-5.87E-06,-0.000484413,-4.58E-05
1.114788462,-7.89E-06,-0.000436912,-3.47E-05
1.115307692,-2.52E-06,3.52E-06,-2.87E-05
1.115826923,-2.18E-06,-7.91E-05,-2.03E-05
1.116346154,-2.69E-06,-0.000545678,-1.59E-05
1.116865385,-4.20E-06,-0.000314717,-9.57E-06
1.117384615,-4.70E-06,-0.00015761,-9.23E-06
1.117903846,-3.19E-06,-9.99E-05,-1.49E-05
1.118423077,-6.21E-06,-3.73E-05,-2.30E-05
1.118942308,-4.87E-06,2.17E-05,-2.43E-05
1.119461538,-2.18E-06,0.000122026,-2.43E-05
1.119980769,-2.18E-06,0.000150057,-2.70E-05
1.1205,-3.86E-06,1.43E-05,-3.24E-05
1.121019231,-3.36E-06,6.19E-05,-2.65E-05
1.121538462,-1.09E-05,0.000151064,-1.48E-05
1.122057692,-7.22E-06,0.000121019,-2.52E-06
1.122576923,-5.20E-06,5.81E-05,-8.39E-07
1.123096154,-6.88E-06,4.28E-05,-1.56E-05
1.123615385,-6.04E-06,4.21E-05,-3.47E-05
1.124134615,-9.57E-06,-0.000168688,-4.21E-05
1.124653846,-1.04E-05,-0.000393606,-3.58E-05
1.125173077,-6.55E-06,-0.000511269,-3.04E-05
1.125692308,-5.04E-06,-0.000501869,-2.48E-05
1.126211538,-3.19E-06,-0.000444633,-1.17E-05
1.126730769,-4.53E-06,-0.000286686,-7.55E-06
1.12725,-5.04E-07,-0.00012958,-8.22E-06
1.127769231,-6.88E-06,-7.40E-05,-6.38E-06
1.128288462,-6.88E-06,-6.28E-05,-1.51E-06
1.128807692,-6.04E-06,-3.51E-05,-5.54E-06
1.129326923,-1.09E-05,-1.56E-05,-1.36E-05
1.129846154,-8.22E-06,-3.11E-05,-2.87E-05
1.130365385,-9.57E-06,-7.08E-05,-4.31E-05
1.130884615,-1.29E-05,-9.11E-05,-4.52E-05
1.131403846,-1.11E-05,-7.02E-05,-3.78E-05
1.131923077,-9.57E-06,-2.43E-05,-3.04E-05
1.132442308,-1.14E-05,8.64E-05,-2.27E-05
1.132961538,-1.14E-05,0.000178088,-2.10E-05
1.133480769,-8.39E-06,0.000143847,-1.66E-05
1.134,-7.89E-06,6.03E-05,-2.00E-05
1.134519231,-7.72E-06,-2.30E-05,-2.13E-05
1.135038462,-3.02E-06,-5.12E-05,-1.16E-05
1.135557692,-3.86E-06,-3.31E-05,-1.51E-06
1.136076923,-7.55E-06,1.33E-05,-2.85E-06
1.136596154,-5.20E-06,3.89E-05,-8.22E-06
1.137115385,-8.39E-06,5.76E-05,-1.41E-05
1.137634615,-9.06E-06,9.05E-05,-1.63E-05
1.138153846,-4.87E-06,0.000107927,-1.63E-05
1.138673077,-5.54E-06,7.02E-05,-1.49E-05
1.139192308,-8.56E-06,1.73E-05,-1.70E-05
1.139711538,-6.04E-06,-1.71E-05,-1.49E-05
1.140230769,-9.23E-06,-5.46E-05,-1.80E-05
1.14075,-7.22E-06,-8.80E-05,-6.88E-06
1.141269231,-1.02E-05,-0.000110109,-1.85E-06
1.141788462,-1.19E-05,-8.80E-05,-1.85E-06
1.142307692,-8.22E-06,-3.47E-05,-6.71E-07
1.142826923,-7.89E-06,1.66E-05,-3.19E-06
1.143346154,-4.20E-06,6.45E-05,-1.51E-06
1.143865385,-8.39E-07,7.54E-05,-1.51E-06
1.144384615,3.36E-07,3.54E-05,-1.68E-07
1.144903846,5.04E-07,-1.29E-05,-3.69E-06
1.145423077,-3.02E-06,-1.53E-05,-1.64E-05
1.145942308,-6.55E-06,-8.56E-06,-2.47E-05
1.146461538,-3.19E-06,-2.50E-05,-2.33E-05
1.146980769,-2.85E-06,-1.28E-05,-1.90E-05
1.1475,-2.69E-06,6.70E-05,1.68E-07
1.148019231,-3.52E-06,0.00010457,1.11E-05
1.148538462,8.39E-07,7.49E-05,9.23E-06
1.149057692,2.52E-06,1.75E-05,-6.04E-06
1.149576923,2.35E-06,-2.94E-05,-1.63E-05
1.150096154,2.18E-06,-4.06E-05,-2.17E-05
1.150615385,2.69E-06,-5.54E-06,-2.67E-05
1.151134615,1.17E-06,3.84E-05,-2.84E-05
1.151653846,-5.04E-07,5.46E-05,-3.36E-05
1.152173077,-2.85E-06,6.19E-05,-3.37E-05
1.152692308,-8.39E-07,4.01E-05,-3.27E-05
1.153211538,-1.01E-06,5.54E-06,-3.14E-05
1.153730769,-2.52E-06,-2.10E-05,-2.50E-05
1.15425,-5.20E-06,-7.03E-05,-2.32E-05
1.154769231,-5.71E-06,-0.000112459,-2.47E-05
1.155288462,8.39E-07,-0.000108598,-2.25E-05
1.155807692,1.17E-06,-6.93E-05,-1.78E-05
1.156326923,3.36E-07,-5.20E-05,-1.98E-05
1.156846154,-1.68E-07,-4.28E-05,-2.53E-05
1.157365385,3.36E-06,-2.50E-05,-2.57E-05
1.157884615,4.87E-06,-1.68E-07,-3.00E-05
1.158403846,4.20E-06,3.37E-05,-2.79E-05
1.158923077,5.71E-06,7.86E-05,-1.68E-05
1.159442308,6.88E-06,0.00011162,-9.23E-06
1.159961538,6.55E-06,0.000121355,-1.06E-05
1.160480769,5.20E-06,0.000156939,-1.17E-05
1.161,8.39E-07,0.000152911,-1.85E-05
1.161519231,-5.54E-06,5.59E-05,-3.22E-05
1.162038462,-6.38E-06,-5.93E-05,-4.53E-05
1.162557692,-2.52E-06,-0.000186481,-4.85E-05
1.163076923,1.01E-06,-0.000229114,-2.15E-05
1.163596154,1.51E-06,-2.43E-05,7.72E-06
1.164115385,3.52E-06,0.000244221,3.04E-05
1.164634615,-6.71E-07,0.000357183,3.74E-05
1.165153846,-3.69E-06,0.000330159,3.74E-05
1.165673077,-5.54E-06,0.000234821,3.46E-05
1.166192308,-4.53E-06,9.90E-05,2.57E-05
1.166711538,-6.38E-06,-8.54E-05,3.02E-06
1.167230769,-8.39E-06,-0.000112627,-5.04E-07
1.16775,-8.22E-06,1.93E-05,2.52E-06
1.168269231,-6.55E-06,0.000178759,1.17E-06
1.168788462,-9.57E-06,0.000192355,-1.17E-06
1.169307692,-1.09E-05,8.83E-05,-3.36E-07
1.169826923,-1.19E-05,-0.000112795,-7.22E-06
1.170346154,-1.56E-05,-6.09E-05,-1.68E-05
1.170865385,-1.19E-05,1.59E-05,-1.63E-05
1.171384615,-1.36E-05,-3.69E-05,-2.48E-05
1.171903846,-1.17E-05,-0.000208972,-3.78E-05
1.172423077,-1.16E-05,-0.000246235,-4.01E-05
1.172942308,-1.36E-05,-0.000310018,-3.58E-05
1.173461538,-9.23E-06,-0.000361379,-3.69E-05
1.173980769,-8.22E-06,-0.000346273,-2.52E-05
1.1745,-8.90E-06,-0.000406363,-2.18E-05
1.175019231,-5.54E-06,-0.000405188,-2.97E-05
1.175538462,-5.54E-06,-0.000211658,-2.72E-05
1.176057692,-7.55E-06,5.89E-05,-2.64E-05
1.176576923,-3.52E-06,0.000179599,-2.84E-05
1.177096154,-5.87E-06,0.000160967,-2.43E-05
1.177615385,-4.20E-06,8.36E-05,-1.76E-05
1.178134615,-2.35E-06,1.31E-05,-1.39E-05
1.178653846,-2.01E-06,6.21E-06,-1.09E-05
1.179173077,-1.85E-06,-7.20E-05,-1.23E-05
1.179692308,-5.04E-07,-9.16E-05,-1.53E-05
1.180211538,-4.53E-06,-0.00019353,-2.48E-05
1.180730769,-6.88E-06,-0.000272251,-2.43E-05
1.18125,-5.04E-07,-0.00020293,-2.20E-05
1.181769231,1.68E-07,1.93E-05,-1.98E-05
1.182288462,1.34E-06,0.000203433,-9.23E-06
1.182807692,3.36E-06,0.000193362,-7.72E-06
1.183326923,-2.18E-06,8.83E-05,-8.39E-06
1.183846154,-2.85E-06,6.60E-05,-1.14E-05
1.184365385,1.68E-07,0.000107256,-1.26E-05
1.184884615,-1.68E-07,0.000138811,-1.12E-05
1.185403846,3.36E-07,0.000123033,-7.55E-06
1.185923077,-1.85E-06,3.32E-05,-1.17E-06
1.186442308,-5.87E-06,-1.71E-05,2.18E-06
1.186961538,-3.69E-06,-8.22E-06,-3.19E-06
1.187480769,-3.52E-06,-4.73E-05,-2.01E-06
1.188,-8.39E-07,-2.58E-05,8.22E-06
1.188519231,-1.01E-06,5.32E-05,1.91E-05
1.189038462,-7.05E-06,9.65E-05,1.90E-05
1.189557692,-6.55E-06,6.87E-05,1.11E-05
1.190076923,-6.88E-06,-2.45E-05,4.20E-06
1.190596154,-6.88E-06,-0.000124376,-8.39E-06
1.191115385,-8.06E-06,-0.000140154,-2.23E-05
1.191634615,-7.72E-06,-0.000139483,-2.79E-05
1.192153846,-6.04E-06,-0.000167178,-3.58E-05
1.192673077,-4.20E-06,-0.000177417,-4.25E-05
1.193192308,-6.55E-06,-0.000169528,-4.31E-05
1.193711538,-7.22E-06,-0.000139818,-3.98E-05
1.194230769,-9.90E-06,-0.000120012,-4.16E-05
1.19475,-8.56E-06,-9.55E-05,-3.88E-05
1.195269231,-6.55E-06,-1.90E-05,-3.68E-05
1.195788462,-3.52E-06,4.01E-05,-3.17E-05
1.196307692,-1.51E-06,9.06E-05,-2.43E-05
1.196826923,-1.01E-06,0.000127398,-2.40E-05
1.197346154,5.04E-07,0.000168017,-2.50E-05
1.197865385,-1.01E-06,2.03E-05,-1.83E-05
1.198384615,-2.18E-06,-0.000239185,-1.33E-05
1.198903846,3.36E-07,-0.000168688,-9.74E-06
1.199423077,2.01E-06,0.000128405,-7.05E-06
1.199942308,-1.17E-06,7.72E-05,-1.09E-05
1.200461538,-4.36E-06,-2.33E-05,-2.32E-05
1.200980769,-2.85E-06,-7.64E-05,-2.48E-05
1.2015,-1.68E-06,-6.43E-05,-1.85E-05
1.202019231,0,-4.18E-05,-1.23E-05
1.202538462,-2.18E-06,-1.36E-05,-8.56E-06
1.203057692,-2.85E-06,5.30E-05,1.68E-07
1.203576923,-1.17E-06,8.73E-05,5.04E-07
1.204096154,-1.68E-06,5.76E-05,-3.02E-06
1.204615385,-8.39E-07,1.91E-05,-8.90E-06
1.205134615,-2.18E-06,5.93E-05,-1.59E-05
1.205653846,-5.04E-06,0.000146197,-1.26E-05
1.206173077,-7.55E-06,0.000279805,-1.02E-05
1.206692308,-8.22E-06,0.000398474,-9.90E-06
1.207211538,-8.22E-06,0.000505898,-5.20E-06
1.207730769,-7.89E-06,0.000512276,5.20E-06
1.20825,-5.20E-06,0.000243717,7.22E-06
1.208769231,-2.01E-06,-6.40E-05,5.20E-06
1.209288462,-6.88E-06,-0.000581262,-7.55E-06
1.209807692,-7.55E-06,-0.000891447,-1.58E-05
1.210326923,-2.85E-06,-0.00072192,-1.24E-05
1.210846154,5.04E-07,-0.000358358,-1.63E-05
1.211365385,-2.18E-06,-7.40E-05,-1.90E-05
1.211884615,-2.85E-06,1.17E-05,-2.50E-05
1.212403846,-6.04E-06,2.64E-05,-2.87E-05
1.212923077,-4.53E-06,-2.20E-05,-2.62E-05
1.213442308,-3.86E-06,-4.62E-05,-3.11E-05
1.213961538,-9.57E-06,-3.24E-05,-3.51E-05
1.214480769,-9.90E-06,-4.28E-05,-3.34E-05
1.215,-1.19E-05,-7.35E-05,-3.12E-05
1.215519231,-8.22E-06,-0.000129076,-3.21E-05
1.216038462,-8.22E-06,-0.000118334,-3.34E-05
1.216557692,-6.38E-06,-7.00E-05,-2.67E-05
1.217076923,-7.22E-06,-2.72E-05,-2.10E-05
1.217596154,-4.53E-06,-1.51E-06,-8.22E-06
1.218115385,-4.20E-06,4.53E-06,-1.17E-06
1.218634615,-7.89E-06,-4.20E-06,1.85E-06
1.219153846,-6.04E-06,-1.24E-05,5.04E-07
1.219673077,-4.87E-06,-2.11E-05,-2.52E-06
1.220192308,-3.19E-06,-1.17E-06,-1.85E-06
1.220711538,-1.51E-06,2.20E-05,-6.55E-06
1.221230769,-3.69E-06,3.27E-05,-1.12E-05
1.22175,-5.87E-06,4.25E-05,-1.76E-05
1.222269231,-2.69E-06,-1.06E-05,-1.81E-05
1.222788462,-4.36E-06,-7.45E-05,-1.86E-05
1.223307692,-8.39E-07,-4.31E-05,-1.73E-05
1.223826923,1.68E-07,-4.80E-05,-1.96E-05
1.224346154,-5.04E-07,3.19E-06,-1.88E-05
1.224865385,-3.36E-07,7.03E-05,-1.86E-05
1.225384615,5.04E-07,-2.69E-06,-1.49E-05
1.225903846,-8.39E-07,-0.000121019,-8.22E-06
1.226423077,-1.85E-06,-5.20E-05,-1.16E-05
1.226942308,-6.88E-06,-3.94E-05,-8.56E-06
1.227461538,-3.36E-06,-3.91E-05,-1.80E-05
1.227980769,-1.01E-06,9.23E-05,-2.45E-05
1.2285,-4.20E-06,0.000327977,-2.58E-05
1.229019231,-3.69E-06,0.000410056,-2.17E-05
1.229538462,-6.55E-06,0.000304311,-1.46E-05
1.230057692,-7.55E-06,0.000159121,-1.06E-05
1.230576923,-7.22E-06,-0.00014049,-1.19E-05
1.231096154,-7.22E-06,-0.000199741,-9.57E-06
1.231615385,-6.88E-06,-8.78E-05,-5.87E-06
1.232134615,-9.23E-06,-6.55E-06,-1.85E-06
1.232653846,-4.87E-06,-4.58E-05,-1.85E-06
1.233173077,-4.36E-06,-7.92E-05,-5.37E-06
1.233692308,-4.20E-06,-7.34E-05,-2.35E-06
1.234211538,-6.21E-06,-0.000101717,-2.18E-06
1.234730769,-3.86E-06,-0.000105409,-4.87E-06
1.23525,-4.70E-06,-0.000114641,-1.06E-05
1.235769231,-6.55E-06,-2.32E-05,-2.84E-05
1.236288462,-5.54E-06,2.64E-05,-3.54E-05
1.236807692,-6.55E-06,-1.16E-05,-4.30E-05
1.237326923,-4.53E-06,-4.62E-05,-5.12E-05
1.237846154,-6.88E-06,-5.52E-05,-5.12E-05
1.238365385,-6.88E-06,-9.70E-05,-4.41E-05
1.238884615,-5.20E-06,-0.00012874,-3.96E-05
1.239403846,-2.18E-06,-0.000101213,-3.52E-05
1.239923077,-1.51E-06,-5.61E-05,-3.11E-05
1.240442308,-6.38E-06,9.74E-06,-2.53E-05
1.240961538,-5.71E-06,-2.52E-06,-2.60E-05
1.241480769,-4.36E-06,-2.67E-05,-2.90E-05
1.242,-3.19E-06,-6.23E-05,-2.58E-05
1.242519231,-1.51E-06,-0.000106249,-1.98E-05
1.243038462,-6.88E-06,-7.74E-05,-9.57E-06
1.243557692,-8.90E-06,-8.22E-06,-9.06E-06
1.244076923,-8.22E-06,9.52E-05,-4.20E-06
1.244596154,-1.24E-05,0.000219883,2.18E-06
1.245115385,-1.09E-05,0.000293568,7.55E-06
1.245634615,-7.89E-06,0.000301625,5.87E-06
1.246153846,-7.05E-06,0.000287694,5.87E-06
1.246673077,-4.20E-06,5.56E-05,6.21E-06
1.247192308,-1.02E-05,-8.68E-05,3.19E-06
1.247711538,-7.05E-06,-3.37E-05,-1.68E-06
1.248230769,-5.54E-06,3.98E-05,-1.88E-05
1.24875,-2.18E-06,-3.34E-05,-2.43E-05
1.249269231,-3.52E-06,-9.85E-05,-1.09E-05
1.249788462,-3.19E-06,-7.89E-06,-7.55E-06
1.250307692,-3.52E-06,3.26E-05,-7.39E-06
1.250826923,-8.56E-06,3.71E-05,-1.26E-05
1.251346154,-8.73E-06,-1.11E-05,-1.14E-05
1.251865385,-6.88E-06,-4.03E-05,-1.49E-05
1.252384615,-4.87E-06,-3.99E-05,-1.46E-05
1.252903846,-7.55E-06,-5.99E-05,-2.23E-05
1.253423077,-4.87E-06,-7.96E-05,-2.87E-05
1.253942308,-5.54E-06,-6.55E-05,-3.16E-05
1.254461538,-2.52E-06,-1.17E-05,-2.03E-05
1.254980769,-8.90E-06,1.71E-05,-9.90E-06
1.2555,-9.40E-06,-3.83E-05,-8.39E-07
1.256019231,-1.06E-05,-3.37E-05,-2.18E-06
1.256538462,-9.23E-06,-6.33E-05,-6.21E-06
1.257057692,-6.21E-06,-9.68E-05,-1.58E-05
1.257576923,-1.12E-05,-0.000113634,-2.52E-05
1.258096154,-7.22E-06,-0.000145693,-2.69E-05
1.258615385,-3.19E-06,-0.000241367,-2.13E-05
1.259134615,-3.52E-06,-0.000270909,-7.22E-06
1.259653846,-1.17E-06,-0.000148211,8.90E-06
1.260173077,-3.86E-06,-8.34E-05,5.20E-06
1.260692308,-6.21E-06,-8.14E-05,-1.51E-05
1.261211538,-9.06E-06,-0.000105913,-4.60E-05
1.261730769,-1.04E-05,-0.000106752,-4.18E-05
1.26225,-8.56E-06,-8.98E-05,-3.04E-05
1.262769231,-8.22E-06,1.53E-05,-1.71E-05
1.263288462,-4.87E-06,0.000158953,5.87E-06
1.263807692,-2.18E-06,0.000203769,1.83E-05
1.264326923,-3.69E-06,0.00012874,1.76E-05
1.264846154,-4.53E-06,0.000131426,1.02E-05
1.265365385,-2.52E-06,0.000132601,5.20E-06
1.265884615,-3.86E-06,0.000246571,5.87E-06
1.266403846,-3.52E-06,0.000203937,1.51E-06
1.266923077,3.36E-07,-8.49E-05,1.85E-06
1.267442308,-8.39E-07,-0.000244724,-8.22E-06
1.267961538,1.68E-07,-0.000156939,-1.43E-05
1.268480769,-1.68E-07,-7.70E-05,-2.17E-05
1.269,1.17E-06,2.13E-05,-2.43E-05
1.269519231,-3.52E-06,1.09E-05,-2.85E-05
1.270038462,-4.70E-06,-4.45E-05,-2.74E-05
1.270557692,-5.54E-06,3.36E-06,-2.10E-05
1.271076923,-2.69E-06,8.64E-05,-1.06E-05
1.271596154,-4.36E-06,0.000177417,-1.56E-05
1.272115385,-7.05E-06,0.000333684,-2.65E-05
1.272634615,-6.38E-06,0.000128069,-3.24E-05
1.273153846,-4.87E-06,-0.0003832,-2.77E-05
1.273673077,-8.56E-06,-0.000441947,-2.58E-05
1.274192308,-6.21E-06,-0.0002318,-2.50E-05
1.274711538,-9.06E-06,6.88E-06,-2.32E-05
1.275230769,-1.23E-05,8.11E-05,-1.78E-05
1.27575,-7.05E-06,2.85E-05,-8.22E-06
1.276269231,-5.20E-06,-5.42E-05,-4.36E-06
1.276788462,-5.87E-06,-2.90E-05,2.18E-06
1.277307692,-6.88E-06,-1.70E-05,6.38E-06
1.277826923,-9.57E-06,-3.81E-05,-2.69E-06
1.278346154,-1.23E-05,-0.000114977,-2.72E-05
1.278865385,-1.14E-05,-0.000283497,-4.13E-05
1.279384615,-9.90E-06,-0.000400488,-2.99E-05
1.279903846,-9.74E-06,-0.00032462,-1.88E-05
1.280423077,5.04E-07,-3.17E-05,-3.19E-06
1.280942308,4.87E-06,0.00026302,1.29E-05
1.281461538,3.86E-06,0.00028719,8.22E-06
1.281980769,4.20E-06,0.000244221,8.73E-06
1.2825,8.39E-07,0.000225422,2.01E-06
1.283019231,-8.39E-07,0.00029659,-4.36E-06
1.283538462,-1.51E-06,0.000267384,-9.23E-06
1.284057692,-2.35E-06,-0.00029424,-6.04E-06
1.284576923,-6.88E-06,-0.000261509,-7.55E-06
1.285096154,-9.57E-06,-6.81E-05,-1.12E-05
1.285615385,-6.55E-06,-0.000213672,-1.91E-05
1.286134615,-6.38E-06,-0.000199741,-2.84E-05
1.286653846,-4.70E-06,-7.28E-05,-3.51E-05
1.287173077,-6.88E-06,-2.10E-05,-4.31E-05
1.287692308,-5.54E-06,3.74E-05,-3.88E-05
1.288211538,-7.22E-06,6.36E-05,-3.24E-05
1.288730769,-6.38E-06,6.06E-05,-3.02E-05
1.28925,-7.89E-06,6.48E-05,-3.27E-05
1.289769231,-4.36E-06,6.06E-05,-3.94E-05
1.290288462,-4.87E-06,2.06E-05,-4.35E-05
1.290807692,-6.88E-06,-5.20E-05,-4.48E-05
1.291326923,-5.20E-06,-0.000146532,-4.18E-05
1.291846154,-6.55E-06,-0.000154925,-3.24E-05
1.292365385,-8.56E-06,-9.32E-05,-2.57E-05
1.292884615,-5.54E-06,-7.37E-05,-1.75E-05
1.293403846,-7.55E-06,-6.58E-05,-1.07E-05
1.293923077,-6.21E-06,-2.94E-05,-7.55E-06
1.294442308,-1.09E-05,4.70E-06,-9.74E-06
1.294961538,-6.21E-06,9.57E-06,-1.02E-05
1.295480769,-4.03E-06,-2.00E-05,-1.09E-05
1.296,-3.52E-06,-2.72E-05,-1.31E-05
1.296519231,-4.53E-06,-4.21E-05,-1.48E-05
1.297038462,-2.35E-06,-7.80E-05,-2.17E-05
1.297557692,-4.36E-06,-6.97E-05,-1.54E-05
1.298076923,-1.68E-07,-8.14E-05,-1.48E-05
1.298596154,-1.17E-06,-9.79E-05,-7.55E-06
1.299115385,8.39E-07,-6.36E-05,5.04E-07
1.299634615,2.52E-06,-1.70E-05,1.68E-07
1.300153846,-8.39E-07,2.67E-05,-5.71E-06
1.300673077,-3.02E-06,6.46E-05,-6.88E-06
1.301192308,-1.01E-06,6.76E-05,-2.85E-06
1.301711538,-6.38E-06,4.28E-05,-2.01E-06
1.302230769,-3.36E-06,2.79E-05,-5.87E-06
1.30275,-8.73E-06,2.60E-05,-1.44E-05
1.303269231,-7.55E-06,1.46E-05,-1.49E-05
1.303788462,-1.06E-05,2.64E-05,-1.83E-05
1.304307692,-8.90E-06,2.45E-05,-1.88E-05
1.304826923,-1.11E-05,1.93E-05,-1.53E-05
1.305346154,-6.88E-06,6.97E-05,-5.54E-06
1.305865385,-7.89E-06,-9.23E-06,5.87E-06
1.306384615,-7.55E-06,-0.000186816,2.85E-06
1.306903846,-7.39E-06,-0.000245228,3.86E-06
1.307423077,-4.20E-06,-0.000166674,-7.39E-06
1.307942308,-2.85E-06,-5.09E-05,-2.72E-05
1.308461538,-5.54E-06,-3.78E-05,-3.84E-05
1.308980769,-5.54E-06,-2.10E-05,-2.55E-05
1.3095,-5.04E-06,5.91E-05,-1.48E-05
1.310019231,-2.52E-06,0.00011397,-5.71E-06
1.310538462,-3.19E-06,0.00016231,3.52E-06
1.311057692,-5.04E-07,0.000179431,1.17E-06
1.311576923,-4.70E-06,0.000187655,3.52E-06
1.312096154,-1.68E-06,0.000155596,2.18E-06
1.312615385,-1.85E-06,2.53E-05,4.87E-06
1.313134615,-1.34E-06,1.34E-06,5.37E-06
1.313653846,1.17E-06,0.000103227,3.19E-06
1.314173077,1.51E-06,0.000222736,-4.20E-06
1.314692308,1.51E-06,0.000301793,-3.52E-06
1.315211538,-8.39E-07,0.000118669,-1.68E-06
1.315730769,-3.52E-06,1.96E-05,-2.35E-06
1.31625,-5.71E-06,-4.62E-05,-8.56E-06
1.316769231,-4.87E-06,-9.65E-05,-1.41E-05
1.317288462,-5.87E-06,-2.23E-05,-1.49E-05
1.317807692,-4.53E-06,5.69E-05,-1.56E-05
1.318326923,-4.36E-06,-5.82E-05,-1.09E-05
1.318846154,-8.39E-06,-0.000175738,-1.09E-05
1.319365385,-7.89E-06,-0.000211658,-2.10E-05
1.319884615,-4.87E-06,-5.82E-05,-1.86E-05
1.320403846,-4.36E-06,1.86E-05,-1.76E-05
1.320923077,-3.52E-06,-6.38E-06,-3.31E-05
1.321442308,-8.39E-07,-3.94E-05,-4.58E-05
1.321961538,-8.39E-07,-7.03E-05,-4.18E-05
1.322480769,-4.20E-06,-0.000150729,-3.12E-05
1.323,-3.52E-06,-0.000197559,-3.41E-05
1.323519231,-5.87E-06,-8.74E-05,-3.46E-05
1.324038462,-5.54E-06,5.56E-05,-3.14E-05
1.324557692,-4.53E-06,0.000101213,-2.74E-05
1.325076923,-3.52E-06,0.000131929,-2.47E-05
1.325596154,-5.04E-07,6.90E-05,-1.96E-05
1.326115385,-5.04E-06,-3.58E-05,-2.00E-05
1.326634615,-1.68E-06,-0.000140826,-2.00E-05
1.327153846,-2.52E-06,-0.000246906,-1.59E-05
1.327673077,-3.19E-06,-0.000303304,-1.24E-05
1.328192308,-2.52E-06,-0.000141497,-1.23E-05
1.328711538,-6.71E-07,5.93E-05,-1.51E-05
1.329230769,-1.17E-06,7.91E-05,-1.80E-05
1.32975,-3.86E-06,4.65E-05,-2.03E-05
1.330269231,-3.52E-06,-7.13E-05,-1.53E-05
1.330788462,-4.20E-06,-0.000230289,-1.98E-05
1.331307692,-5.87E-06,-0.000326467,-2.38E-05
1.331826923,-5.37E-06,-0.000277287,-2.64E-05
1.332346154,-3.19E-06,-6.50E-05,-2.10E-05
1.332865385,1.68E-07,0.000132937,-1.24E-05
1.333384615,-5.04E-07,0.000173053,-4.36E-06
1.333903846,-1.51E-06,0.000102556,-1.19E-05
1.334423077,-1.17E-06,4.55E-05,-1.76E-05
1.334942308,1.85E-06,-2.79E-05,-1.66E-05
1.335461538,2.85E-06,-0.000174228,-2.03E-05
1.335980769,3.86E-06,-0.00026772,-1.46E-05
1.3365,3.86E-06,-0.000180774,-1.85E-06
1.337019231,4.36E-06,-6.73E-05,1.31E-05
1.337538462,2.18E-06,-3.52E-06,2.60E-05
1.338057692,1.17E-06,2.13E-05,1.70E-05
1.338576923,-5.04E-07,2.70E-05,-1.68E-07
1.339096154,-3.86E-06,1.86E-05,-1.49E-05
1.339615385,-4.87E-06,-1.16E-05,-2.30E-05
1.340134615,-4.20E-06,-5.99E-05,-3.32E-05
1.340653846,-4.87E-06,-0.000113298,-4.08E-05
1.341173077,-7.55E-06,6.21E-06,-4.26E-05
1.341692308,-3.02E-06,0.000146197,-3.11E-05
1.342211538,-2.85E-06,0.000253117,-2.45E-05
1.342730769,-4.36E-06,0.000402167,-1.86E-05
1.34325,-4.87E-06,0.000488106,-1.56E-05
1.343769231,-2.85E-06,0.000282322,-4.87E-06
1.344288462,-2.18E-06,-0.000151904,-2.85E-06
1.344807692,-1.17E-06,-0.00031136,-7.22E-06
1.345326923,-3.19E-06,-6.50E-05,-1.73E-05
1.345846154,-3.86E-06,-6.88E-06,-1.83E-05
1.346365385,-1.85E-06,-0.000144686,-1.81E-05
1.346884615,-4.03E-06,-0.000102388,-2.20E-05
1.347403846,-3.19E-06,-6.38E-06,-2.60E-05
1.347923077,-2.18E-06,7.05E-06,-2.50E-05
1.348442308,-2.52E-06,-3.39E-05,-2.87E-05
1.348961538,-4.20E-06,-3.78E-05,-3.99E-05
1.349480769,-1.33E-05,2.37E-05,-4.83E-05
1.35,-1.09E-05,6.26E-05,-4.95E-05
1.350519231,-8.56E-06,8.64E-05,-3.94E-05
1.351038462,-7.89E-06,0.000102556,-2.43E-05
1.351557692,-2.35E-06,8.64E-05,-1.06E-05
1.352076923,-2.85E-06,-0.000103899,6.71E-07
1.352596154,1.68E-07,-0.000225422,3.52E-06
1.353115385,-3.19E-06,-8.02E-05,2.52E-06
1.353634615,-3.36E-06,-0.000142168,5.04E-07
1.354153846,-2.18E-06,-0.000159289,-4.87E-06
1.354673077,-5.54E-06,-9.03E-05,-8.73E-06
1.355192308,-6.88E-06,7.97E-05,-1.23E-05
1.355711538,-7.55E-06,0.000219715,-1.83E-05
1.356230769,-9.90E-06,-0.000156268,-2.17E-05
1.35675,-5.87E-06,-0.000362554,-1.80E-05
1.357269231,-7.05E-06,-4.38E-05,-1.90E-05
1.357788462,-5.54E-06,-6.76E-05,-1.90E-05
1.358307692,-6.88E-06,-0.000129412,-1.83E-05
1.358826923,-8.22E-06,-0.000126894,-1.73E-05
1.359346154,-9.90E-06,-9.89E-05,-2.05E-05
1.359865385,-1.39E-05,-5.42E-05,-2.92E-05
1.360384615,-1.23E-05,3.52E-06,-3.37E-05
1.360903846,-9.90E-06,2.50E-05,-3.54E-05
1.361423077,-2.85E-06,1.44E-05,-2.62E-05
1.361942308,-3.69E-06,2.18E-06,-1.46E-05
1.362461538,8.39E-07,8.56E-06,-3.86E-06
1.362980769,-5.04E-07,-1.49E-05,-4.53E-06
1.3635,-1.51E-06,-1.93E-05,-1.09E-05
1.364019231,-2.85E-06,2.57E-05,-1.12E-05
1.364538462,-7.89E-06,3.27E-05,-1.39E-05
1.365057692,-6.88E-06,4.18E-05,-1.44E-05
1.365576923,-6.21E-06,9.15E-05,-2.10E-05
1.366096154,-8.39E-06,0.000130587,-2.67E-05
1.366615385,-4.36E-06,9.11E-05,-2.90E-05
1.367134615,-9.23E-06,-4.58E-05,-2.53E-05
1.367653846,-7.39E-06,-0.000174731,-9.06E-06
1.368173077,3.36E-07,-9.21E-05,7.22E-06
1.368692308,3.86E-06,7.15E-05,1.53E-05
1.369211538,4.20E-06,6.90E-05,1.36E-05
1.369730769,1.17E-06,-1.68E-07,8.39E-06
1.37025,-6.71E-07,-4.10E-05,-6.38E-06
1.370769231,-4.87E-06,-4.46E-05,-1.43E-05
1.371288462,-5.87E-06,-2.38E-05,-1.63E-05
1.371807692,-4.03E-06,-1.17E-06,-1.76E-05
1.372326923,-7.05E-06,1.78E-05,-2.15E-05
1.372846154,-7.55E-06,3.52E-06,-2.74E-05
1.373365385,-4.36E-06,5.87E-06,-3.34E-05
1.373884615,-2.35E-06,3.86E-05,-3.12E-05
1.374403846,-2.52E-06,2.20E-05,-3.14E-05
1.374923077,-1.51E-06,-4.75E-05,-3.19E-05
1.375442308,-6.88E-06,-8.88E-05,-3.00E-05
1.375961538,-1.11E-05,-8.11E-05,-2.57E-05
1.376480769,-6.21E-06,-6.11E-05,-2.23E-05
1.377,-6.88E-06,-4.41E-05,-1.58E-05
1.377519231,-1.04E-05,-2.70E-05,-1.76E-05
1.378038462,-8.90E-06,3.69E-06,-1.49E-05
1.378557692,-7.05E-06,4.36E-05,-1.04E-05
1.379076923,-6.55E-06,8.33E-05,-1.36E-05
1.379596154,-9.74E-06,0.000121019,-2.32E-05
1.380115385,-1.09E-05,5.04E-07,-2.37E-05
1.380634615,-6.04E-06,-0.000229114,-2.58E-05
1.381153846,-4.20E-06,-0.000202258,-1.93E-05
1.381673077,-4.20E-06,-0.000127733,-1.66E-05
1.382192308,-3.19E-06,-3.12E-05,-1.51E-05
1.382711538,-4.20E-06,-2.13E-05,-1.59E-05
1.383230769,-5.87E-06,-2.22E-05,-1.53E-05
1.38375,-3.52E-06,6.88E-06,-1.43E-05
1.384269231,-6.38E-06,2.47E-05,-1.68E-05
1.384788462,-5.87E-06,-1.01E-06,-1.49E-05
1.385307692,-2.85E-06,5.04E-06,-1.09E-05
1.385826923,-2.52E-06,-7.70E-05,-1.70E-05
1.386346154,-5.54E-06,-6.36E-05,-1.54E-05
1.386865385,-5.20E-06,-3.42E-05,-5.87E-06
1.387384615,-3.36E-06,-4.26E-05,1.51E-06
1.387903846,-2.52E-06,-4.05E-05,7.05E-06
1.388423077,1.17E-06,6.71E-07,8.56E-06
1.388942308,-3.19E-06,5.56E-05,6.55E-06
1.389461538,-3.52E-06,0.000132265,5.20E-06
1.389980769,-4.87E-06,0.000183795,-2.85E-06
1.3905,-6.38E-06,0.000139483,-1.59E-05
1.391019231,-4.20E-06,0.000136294,-2.01E-05
1.391538462,-4.87E-06,0.000160128,-2.35E-05
1.392057692,-7.89E-06,0.000151736,-3.21E-05
1.392576923,-6.88E-06,9.80E-05,-3.17E-05
1.393096154,-6.88E-06,1.19E-05,-2.45E-05
1.393615385,-3.52E-06,-0.000118334,-2.13E-05
1.394134615,-4.87E-06,-0.000186816,-2.18E-05
1.394653846,-4.87E-06,-8.12E-05,-2.05E-05
1.395173077,-4.20E-06,0.000115145,-1.49E-05
1.395692308,1.68E-07,0.000271412,-9.90E-06
1.396211538,-3.36E-06,0.000208133,-6.38E-06
1.396730769,1.85E-06,6.68E-05,-2.69E-06
1.39725,2.85E-06,-0.000150729,5.04E-07
1.397769231,5.04E-06,-0.000237171,2.85E-06
1.398288462,3.52E-06,-0.000159289,-2.35E-06
1.398807692,4.53E-06,5.14E-05,-1.29E-05
1.399326923,-7.05E-06,8.07E-05,-3.17E-05
1.399846154,-1.17E-05,-0.000153246,-6.46E-05
1.400365385,-1.29E-05,-0.000362219,-7.54E-05
1.400884615,-1.48E-05,-0.000368933,-5.76E-05
1.401403846,-1.19E-05,-0.000234653,-1.83E-05
1.401923077,-7.55E-06,1.76E-05,2.84E-05
1.402442308,-5.87E-06,0.000162982,5.69E-05
1.402961538,-1.51E-06,8.38E-05,5.42E-05
1.403480769,-2.52E-06,1.80E-05,4.13E-05
1.404,-4.70E-06,1.36E-05,2.70E-05
1.404519231,-5.20E-06,2.03E-05,1.23E-05
1.405038462,-7.55E-06,-1.78E-05,-1.17E-06
1.405557692,-5.71E-06,-2.57E-05,-8.56E-06
1.406076923,-6.21E-06,5.20E-05,-1.29E-05
1.406596154,-3.52E-06,0.000147539,-1.70E-05
1.407115385,-5.20E-06,0.000257481,-2.17E-05
1.407634615,-6.38E-06,0.000252277,-2.53E-05
1.408153846,-6.55E-06,0.000159121,-1.86E-05
1.408673077,-5.87E-06,6.70E-05,-1.96E-05
1.409192308,-5.04E-06,-1.16E-05,-2.74E-05
1.409711538,-8.73E-06,-9.70E-05,-3.19E-05
1.410230769,-9.74E-06,-0.000154086,-3.52E-05
1.41075,-1.11E-05,-0.000163317,-3.81E-05
1.411269231,-7.05E-06,-0.000102892,-2.97E-05
1.411788462,-3.52E-06,-8.17E-05,-1.81E-05
1.412307692,-3.19E-06,-9.38E-05,-8.22E-06
1.412826923,-1.85E-06,-0.000138811,-9.40E-06
1.413346154,-1.68E-06,-0.000191852,-4.53E-06
1.413865385,-3.19E-06,-0.000208301,-1.19E-05
1.414384615,-6.88E-06,-0.000160128,-2.13E-05
1.414903846,-5.20E-06,-0.000194202,-3.26E-05
1.415423077,-5.54E-06,-0.00022475,-3.78E-05
1.415942308,-5.87E-06,-0.000192859,-3.39E-05
1.416461538,-3.52E-06,-0.000114473,-2.52E-05
1.416980769,-1.68E-06,-1.16E-05,-1.86E-05
1.4175,-3.19E-06,-3.34E-05,-8.22E-06
1.418019231,-3.52E-06,-2.18E-06,-2.85E-06
1.418538462,5.04E-07,1.39E-05,-6.38E-06
1.419057692,-1.85E-06,4.18E-05,-5.04E-07
1.419576923,-3.19E-06,0.000105577,-4.53E-06
1.420096154,-3.52E-06,0.000175235,-4.87E-06
1.420615385,-2.85E-06,0.000188495,-2.18E-06
1.421134615,-8.22E-06,5.04E-05,-1.68E-07
1.421653846,-4.53E-06,-5.46E-05,-4.36E-06
1.422173077,-2.85E-06,3.47E-05,-1.68E-07
1.422692308,-5.20E-06,0.000197223,1.17E-06
1.423211538,-3.52E-06,0.000363058,-8.90E-06
1.423730769,-6.88E-06,-1.83E-05,-2.27E-05
1.42425,-8.22E-06,-0.000495995,-3.24E-05
1.424769231,-7.72E-06,-0.000301289,-4.05E-05
1.425288462,-8.56E-06,-0.000165331,-3.37E-05
1.425807692,-6.88E-06,-0.000100542,-2.17E-05
1.426326923,-6.71E-06,-3.71E-05,-2.37E-05
1.426846154,-2.85E-06,-6.46E-05,-2.65E-05
1.427365385,-5.04E-06,-0.000110445,-2.38E-05
1.427884615,-9.23E-06,-0.000101549,-1.58E-05
1.428403846,-7.89E-06,-0.000103227,-1.26E-05
1.428923077,-4.53E-06,-7.97E-05,-8.90E-06
1.429442308,-7.22E-06,1.85E-06,-8.56E-06
1.429961538,-6.38E-06,9.58E-05,-7.89E-06
1.430480769,-6.21E-06,0.000123369,-1.38E-05
1.431,-8.56E-06,6.66E-05,-1.39E-05
1.431519231,-4.36E-06,4.65E-05,-9.40E-06
1.432038462,-8.90E-06,6.41E-05,-1.63E-05
1.432557692,-8.90E-06,9.28E-05,-1.91E-05
1.433076923,-5.71E-06,5.42E-05,-2.06E-05
1.433596154,-6.21E-06,1.56E-05,-2.23E-05
1.434115385,-7.05E-06,3.88E-05,-2.40E-05
1.434634615,-6.21E-06,-2.18E-06,-2.89E-05
1.435153846,-6.38E-06,-5.42E-05,-2.57E-05
1.435673077,-7.05E-06,-1.09E-05,-1.90E-05
1.436192308,-9.06E-06,6.06E-05,-9.90E-06
1.436711538,-9.74E-06,0.000116991,-3.36E-07
1.437230769,-5.87E-06,7.17E-05,5.04E-06
1.43775,8.39E-07,-6.36E-05,4.20E-06
1.438269231,1.68E-07,-7.52E-05,4.36E-06
1.438788462,-1.01E-06,-0.000181445,7.55E-06
1.439307692,-5.04E-07,-0.000301961,4.03E-06
1.439826923,-3.19E-06,-0.000252949,1.51E-06
1.440346154,-1.17E-06,-0.000121355,-1.12E-05
1.440865385,-2.35E-06,4.28E-05,-1.96E-05
1.441384615,-3.52E-06,0.000143511,-2.18E-05
1.441903846,-6.04E-06,0.000152911,-2.25E-05
1.442423077,-4.87E-06,0.00010692,-2.10E-05
1.442942308,-7.05E-06,3.07E-05,-1.78E-05
1.443461538,-2.85E-06,-2.60E-05,-8.90E-06
1.443980769,-1.68E-06,-5.04E-05,-7.89E-06
1.4445,-4.70E-06,-5.14E-05,-1.36E-05
